I,II,III,aVR,aVL,aVF,V1,V2,V3,V4,V5,V6
1.11078421925577,1.1029825876525294,1.1053421189011075,1.1072160440399677,1.1206462662077339,1.1171854146997122,1.44977157512254,1.0523868659577298,1.4762987865821189,1.4548689025920991,1.118082173026573,1.1127246501164203
1.0915699796249139,1.0837509283792204,1.0867759541129391,1.0882439492875553,1.1022369139731698,1.0984383559927458,1.4308007813469605,1.0385867782406766,1.4576450358504034,1.4357914710088129,1.099163341153328,1.093680012454603
1.0410888146545791,1.0332038684902163,1.0380477814238795,1.038439255965732,1.053928569332187,1.0492239185532368,1.380953566260326,1.0023285042335486,1.4086887944201791,1.385661575769913,1.0494826114122093,1.0436819383545708
0.9631114248850889,0.9551776164578412,0.9626706426359934,0.9614117025641568,0.9791826169408033,0.9731112615289053,1.3039835708989505,0.9463203742826959,1.3329441800211188,1.30826101932193,0.9726808297094471,0.9663688080705626
0.8625449254515365,0.8546398404467385,0.8652702118675434,0.8619050365755118,0.8825661173851095,0.874789924786099,1.2047643499656653,0.8740865965376142,1.2350441347298236,1.2084970553615682,0.8735250496581519,0.8665162170967919
0.7446323511400459,0.7369007840066419,0.7507836837165502,0.7449832460920085,0.7689528102552231,0.7592661227049184,1.0885043537905503,0.7893926318034027,1.1199329942100174,1.0916143880454627,0.757105790129929,0.7492227400773912
0.6149526563877723,0.6076132660723766,0.6244597732607957,0.6160305598053883,0.6435231141452896,0.6318627441792191,0.9607469283309336,0.6962451935407632,0.9928664877125466,0.9631951719901803,0.6288370352548783,0.6199099308064105
0.4794207152829009,0.4727726809638577,0.49185871605782044,0.4807514470069206,0.511764126653481,0.4982193526166113,0.8273703151713903,0.5988922478660017,0.8594117380753804,0.8291590122722164,0.4944562344215941,0.4843223222278194
0.34428719838819427,0.33871561457041155,0.3588522681449247,0.345170617587405,0.3794696243819958,0.36429218593845974,0.6945871381551539,0.5018229199368942,0.7254472617236103,0.6957623066808567,0.36002430227716614,0.34852742643550433
0.21538064249011304,0.21120544717454035,0.23116976473952344,0.2151306738753722,0.2523287282491289,0.23585362983012997,0.5681231484682279,0.4092217872455093,0.5967323383234937,0.5687551799261941,0.2313418172382564,0.2183842206654142
0.09610260416363794,0.09355427650863703,0.11233407514849703,0.09418956818240742,0.1338791200247867,0.11641535842420173,0.4512926921722346,0.3235305182306372,0.4768336115900419,0.4514606769321511,0.11187896104727636,0.09743835062114112
-0.011139308593089797,-0.011853238335930393,0.004722982968412464,-0.015231253706388052,0.026487099101716358,0.008369294035252366,0.3464614005582418,0.24647786978808792,0.3681448809416175,0.34625527465892947,0.004034437752909901,-0.011884384514840227
-0.1045146458918964,-0.1032200410573447,-0.08982284412104814,-0.1112621243685898,-0.06801032684909508,-0.08643824177380377,0.25541997247638537,0.17937810206624744,0.27252273109701797,0.2549362401674012,-0.09034983181497688,-0.10771447912526994
-0.18277011595457415,-0.17933667814333804,-0.1699999854621165,-0.19258533792043353,-0.14830538652794442,-0.1667067091235058,0.17938417433586953,0.12313097846607832,0.1912865001744793,0.17872163061910845,-0.1699887975946797,-0.1887388917831778
-0.2452295851128836,-0.23958129887119264,-0.2350422674189374,-0.2584351500168162,-0.21361954500641314,-0.2316813498178463,0.11899484010496705,0.0782217656411191,0.12521827969167554,0.1182502932762636,-0.23415428029265625,-0.2542010452518831
-0.2917940778085521,-0.283919655307741,-0.28472076337757024,-0.308597777851295,-0.2637035037273676,-0.28115318734427214,0.07431787131101847,0.04472123349748469,0.0745629145657195,0.07358186550174811,-0.2826749713835267,-0.3039008264849944
-0.3229417765932738,-0.31290510230936525,-0.3193437937459875,-0.3434114001560889,-0.29883720050495854,-0.3154590268736835,0.04484423704043272,0.022285655193865606,0.03902800311316218,0.04419677475911443,-0.31593643311007374,-0.33819458662641066
-0.3397280221287105,-0.32767859752199785,-0.3397569259540752,-0.3637661572020763,-0.3198298095246212,-0.33548145526043416,0.02948997393868713,0.010156807141529112,0.017783897049992392,0.028996238612584102,-0.33488109848324077,-0.3579951410103197
-0.3437853131864914,-0.3299687013811212,-0.3473429744536333,-0.37110415079879744,-0.32801974134307466,-0.3426488410423318,0.02659618621032711,0.007161969004318258,0.009463701491638499,0.026302264727049718,-0.34100827128213484,-0.36477176916119897
-0.33732073358299985,-0.3220622034623169,-0.3440220007183753,-0.36741944429445206,-0.3252746428883241,-0.338935334440638,0.033940718161157124,0.011715897523915886,0.012163274952966208,0.03387246328050586,-0.33637412605402395,-0.36055021479381544
-0.3222337803175798,-0.3057709069770516,-0.33184743391824145,-0.35478467585529555,-0.31365046905411265,-0.3263865354101758,0.0496933922536984,0.022456249784030435,0.02380791097974999,0.0498767457720265,-0.3229855465464302,-0.34739405565299786
-0.30053300939418187,-0.283260167365431,-0.3124372683434152,-0.3348890811458816,-0.2947173717617426,-0.3066760490330186,0.07179054122065409,0.03793949791058654,0.04279621236313241,0.07222360064403466,-0.3026179257422812,-0.3270283736448668
-0.2745463936152692,-0.25683077995410963,-0.2880549051404026,-0.3100509767405997,-0.27070695187418387,-0.2820955038279463,0.09794451986628894,0.05649481568632003,0.06686360893363508,0.09861649690068008,-0.27758685821402956,-0.30178466714678887
-0.24629314213931894,-0.22846819973644203,-0.260724109180776,-0.2823255041105574,-0.24363668330156715,-0.25467476296478037,0.12617571939247813,0.07667313100017376,0.09397155312734667,0.1270693402266911,-0.2499194586594401,-0.2737198050547979
-0.2174837004808213,-0.1998425413724837,-0.23218318753291003,-0.2534742193207104,-0.21524315998137203,-0.22615335925005123,0.1548125673987063,0.09724712584729711,0.12236674755474558,0.1559064729873738,-0.2213460206919728,-0.2445944673562068
-0.18951975051028025,-0.1723085791889902,-0.2038849894619827,-0.22496509302986337,-0.1869820958784264,-0.19798049512699822,0.1824915278820682,0.11721123632904629,0.15058114500070033,0.18376267422861248,-0.1933000168407823,-0.21587314512960643
-0.1634942104542132,-0.14690574717941796,-0.17699690642997423,-0.19797251049066947,-0.1600283249849064,-0.17131504267556974,0.20815710123726874,0.13578165265298422,0.17743194842446947,0.20958315967686963,-0.16691809855071812,-0.18872414054486597
-0.14019123489515095,-0.12435813900392348,-0.15240087209566763,-0.17337727154963042,-0.13527580132033717,-0.1470255436124229,0.2310618242566225,0.15239631913288054,0.20202161095970156,0.23262358173918593,-0.14304009618232494,-0.16401956686313315
-0.12008621477163778,-0.1050745079893639,-0.1306933623146487,-0.1517665906470966,-0.11333759893159147,-0.125690209290924,0.2507662701300544,0.16671493418871178,0.2237378359144354,0.2524500295031803,-0.12220901901184175,-0.14233534843683376
-0.10334577737823135,-0.08914826712929695,-0.11218539513930549,-0.13343409681726698,-0.09454591189289127,-0.10759692070114797,0.2671390484450993,0.178618950346661,0.24225357677109977,0.2689390287370497,-0.10467105523120256,-0.1239512207096719
-0.08982778636550286,-0.07635748908398066,-0.09690253081882927,-0.11837983368818947,-0.07895205430580678,-0.09274322846987913,0.2803568051869014,0.18821157423911808,0.2575270371865131,0.2822775418895692,-0.09037557194803666,-0.10885073021663019
-0.07908134174003718,-0.06616490618037343,-0.08458487179921353,-0.1063102594817601,-0.06632646029925651,-0.08083635286061065,0.2909042227382159,0.1958177666046796,0.26980167099188423,0.2929629680900923,-0.07897511518566806,-0.0967212345839694
-0.07036118296340604,-0.05780569545445481,-0.07468706272325451,-0.09663824701372348,-0.05615868402950757,-0.07129318377354404,0.29953368871619984,0.20197349325610414,0.27960618219281236,0.3017543017381577,-0.0698254098831151,-0.0869539025292288
-0.06320355891491503,-0.05096830631528977,-0.06647633959445012,-0.0886314178256239,-0.047715448260730375,-0.06339248323639472,0.3066235208623765,0.2070103118407955,0.28768262427399105,0.3090156726526236,-0.06226453485127032,-0.078831396354972
-0.05737646872222267,-0.04537682087494904,-0.05969049916137554,-0.08205828028760796,-0.040686597208610564,-0.0569088325591849,0.31242302818632406,0.2110956126320376,0.2943259994980237,0.3150031763875658,-0.05610022101170251,-0.07214045005461256
-0.05259064149218872,-0.04074484182223481,-0.054079712965959245,-0.07664991630557824,-0.034839831356573786,-0.051575420418221406,0.3172152558757799,0.21443741685161227,0.29977807235774573,0.32000161089068285,-0.051047555733195624,-0.06660435867640478
-0.04858484068428129,-0.03681491168421833,-0.04938431245305737,-0.0721413891541661,-0.029916128646958865,-0.04713067625979202,0.3212551368363789,0.21722360841034882,0.30430119258427435,0.32426740897548617,-0.04684470317015796,-0.061958351948272504
-0.045125864110576744,-0.03335851282624003,-0.04536995140237855,-0.068293899130303,-0.02568128635405158,-0.04333888647393548,0.3247694916916541,0.21962193390812482,0.3081324685740978,0.32802863832129997,-0.043256442949204,-0.05796409178448657
-0.04200854393576,-0.030176067451909365,-0.04182760592848407,-0.06489478355322079,-0.02192592108408506,-0.03999019439444118,0.3279570287830363,0.22178000263386555,0.3114837673890755,0.3314850014732616,-0.04007417016915395,-0.054409672285665754
-0.03905574667712394,-0.027096937603105196,-0.0385735744807882,-0.06175751676445176,-0.01846546877524004,-0.03690060029884942,0.3309883441698542,0.22382528656554412,0.31454171475643755,0.33480783584232165,-0.037115895401034577,-0.051109619738776285
-0.03611837320456995,-0.023979425159975167,-0.03544947784355772,-0.058721710127828314,-0.015140184697644481,-0.03391196140845145,0.3340059216293342,0.22586512037018164,0.3174676950687856,0.3381401137052434,-0.03422624468807842,-0.04790489261713185
-0.03307535874060773,-0.020710771840936275,-0.03232225913591226,-0.0556531120294835,-0.01181514345337372,-0.03089199188828906,0.33712413265660074,0.22798670140384714,0.32039785138409216,0.34159644220460333,-0.031276459545724306,-0.04466288158039371
-0.02983367286035537,-0.01720715920267464,-0.02908418381182408,-0.05244360787785043,-0.008380238976450325,-0.027734262847155106,0.3404292364646761,0.23025708971165731,0.32344308542570077,0.34526306334879076,-0.02816439696161708,-0.04127740947457084
-0.026328319491538993,-0.013413708640145405,-0.02565283966011831,-0.04901122010366265,-0.004750184532844464,-0.0243582023375932,0.34397937998448036,0.23272320802777702,0.3266890575823262,0.34919785401200826,-0.024814529395607677,-0.03766873133201949
-0.0225223369144934,-0.009304481386572895,-0.0219711368044727,-0.04530010815995397,-0.0008645127204733455,-0.020709095355897728,0.3478045978648315,0.23541184177541868,0.3301961869080542,0.35343032593427126,-0.021177944779753443,-0.03378353437144373
-0.018406797762161465,-0.00488247851345066,-0.018007307703417613,-0.04128056852205855,0.0033124245307981255,-0.016758083842113927,0.3519068124724452,0.23832963906684293,0.33399965112234165,0.3579616257214084,-0.01723234651831733,-0.029594937997894907
-0.01400080902009445,-0.00017964093054127078,-0.01375490715033646,-0.03694903468761088,0.007791455959158065,-0.012502166680037933,0.3562598338919353,0.24146311070335813,0.33810938661001655,0.362764534845061,-0.012982053487768689,-0.02510249380277214
-0.009351512026451847,0.0047431506141233926,-0.009232812273464999,-0.03232807717654579,0.012558590970846894,-0.007964199697216626,0.36080935992581337,0.2447786301753206,0.34251008842127784,0.3677834696426835,-0.008458000036782983,-0.02033218556382193
-0.004514189914384637,0.00988582469794676,-0.004485222535892029,-0.027466403531098537,0.017575019640157865,-0.00319289566494772,0.3655187123053686,0.24823715045023437,0.3471612102716957,0.3729883428534026,-0.003717735986241678,-0.015336429245138462
0.0005817420497924251,0.015319649144667982,0.00043054426305680436,-0.022412005098260062,0.022780263033622856,0.0017655435502422247,0.3704662194479119,0.2518900828515359,0.35200274211425975,0.3784583264664635,0.0012291273378625235,-0.010154005914460387
0.005964854586232869,0.021055663476147686,0.005574384219338828,-0.017089914007077493,0.02821233403180938,0.006985952829185336,0.3756670384561863,0.2557579891695058,0.3570825979475074,0.3842073150867329,0.0064569349410558965,-0.0047061148512946285
0.01164494515674724,0.027103053502299888,0.01097885465566336,-0.011476743948615968,0.0339178980117395,0.012490386251141428,0.3811293127600131,0.2598482403175676,0.3624429986827205,0.39024391883841736,0.011977034293476779,0.0010247106682591532
0.017630024610354976,0.033468894838771426,0.01665343323408734,-0.005563273629360212,0.039906278021295184,0.018287942799273725,0.3868607627924404,0.26416661275572756,0.36809341800990364,0.39657530370029564,0.01779819495060475,0.007047559977652244
0.023926317504418513,0.040158157211197615,0.022606638952842633,0.0006577160466873485,0.04618515329077741,0.024385866443325428,0.392868668628152,0.26871729279822926,0.37404135668279864,0.40320718735763866,0.02392722724589236,0.013369974652964354
0.03053828529034144,0.04717401522021597,0.028845357149947792,0.00719172598388282,0.05276056057518154,0.030789707850054793,0.399158616485808,0.2735031876239249,0.38029263648465716,0.4101435397130147,0.030369217639313564,0.019997786370315893
0.03746862734154121,0.05451786211970075,0.03537480957622653,0.014042551486768546,0.05963689421370945,0.0375033315529104,0.40573444315233925,0.2785259390653874,0.38685141326165484,0.41738656960798587,0.03712753915189649,0.026935109717032172
0.04471828095344952,0.06218930981676289,0.04219855439530842,0.02121228226007336,0.06681690612976923,0.04452891595203123,0.4125982359829479,0.2837859236089111,0.39372017692289196,0.4249367248231078,0.04420385136572254,0.03418434219164287
0.05228642134351174,0.07018618887174989,0.04931848618362822,0.028701302408712562,0.07430170583097502,0.05186695331424672,0.41975033290110675,0.28928225239451116,0.40089975144039325,0.43279269207792925,0.05159810042392716,0.041746164203882934
0.06017046165118768,0.07850454849824617,0.056734835930426435,0.03650829043778738,0.08209076040914749,0.05951624977307692,0.4271893223985601,0.2950127712159242,0.40838929484910796,0.4409513970309931,0.059308519030699516,0.04961953907469158
0.06836605293795055,0.08713865656307271,0.06444617103774883,0.044630219252586076,0.09018189454031357,0.06747392532873217,0.43491204353532276,0.30097406052060777,0.41618629924690964,0.4494080042798353,0.06733162645128254,0.05780171303621312
0.07686708418728806,0.09608099958628716,0.07244939532044709,0.05306235615858283,0.09857129048470652,0.07573541384811314,0.4429135859396809,0.30716143540974045,0.42428659079459646,0.4581559173609857,0.07566222851197286,0.06628821523179647
0.08566568230470181,0.10532228274118387,0.08073974900617811,0.061798262861438406,0.10725348808676569,0.08429446306481111,0.4511872898081914,0.31356894563822224,0.4326843297158908,0.46718677874996756,0.08429341760012121,0.07507285771599537
0.09475221211770728,0.11485142985429414,0.08931080873540426,0.07082979546699995,0.11622138477513706,0.09314313457910778,0.4597247459056824,0.3201893756146738,0.4413720102974398,0.47649046986129745,0.09321657266413172,0.08414773545456841
0.10411527637583391,0.1246555834053855,0.09815448756139375,0.08014710448130091,0.1254662355626726,0.1022718038579753,0.468515795565253,0.32701424440143767,0.45034046088881485,0.4860551110484854,0.10242135921346227,0.09350322632447895
0.11374171575062533,0.13472010452746264,0.10726103495021996,0.08973863481056125,0.13497765304643056,0.11166916023507618,0.47754853068827324,0.3340338057145766,0.45957884390251197,0.49586706160403593,0.11189572931862467,0.10312799111389495
0.12361660883563891,0.14502857300676644,0.11661903678076171,0.09959112576118703,0.14474360740767597,0.12132220691076351,0.4868092937443841,0.3412370479238752,0.469074655813951,0.5059109197594459,0.12162592161118459,0.113008973522189
0.13372327214644641,0.15556278728277492,0.12621541534470396,0.10968961103977094,0.15475042641187925,0.13121626095208058,0.4962826777714975,0.3486116940528388,0.4788137271614774,0.5161695226852063,0.1315964612837614,0.12313140015993909
0.14404326012063307,0.1663027644482028,0.1360354293465365,0.12001741875309219,0.16498279540871783,0.14133495329276133,0.5059515263757968,0.3561442017786939,0.48878022254636,0.5266239464908018,0.1417901600900279,0.13347878054892726
0.15455636511779858,0.1772343033482145,0.14606267390355496,0.13055617140811618,0.17542375733207538,0.15166022873323012,0.5157971597054543,0.3638197634323883,0.49895664063279266,0.5372544627360754,0.15218811634471127,0.1440329071221408
0.16525235898611607,0.18836404834453394,0.1562790805458604,0.1412857859119945,0.18605471270004145,0.1621723459406014,0.5258266963857111,0.3716310317252989,0.5093238141478935,0.5480690703270424,0.16276971492359205,0.15477385522377168
0.17613565491479818,0.19965364835946509,0.16666491721635962,0.15218449064103035,0.19685541961491246,0.1728499691536725,0.5360232966218694,0.37958055760590265,0.519860909881705,0.5590438861418842,0.17352338091325623,0.1656814917817508
0.1871650009802332,0.21105939192388798,0.17721270445322385,0.1632562916499775,0.207808114655471,0.1836985068005865,0.5463451950376347,0.3876382723583922,0.5305525764891816,0.5701354986697907,0.18445550100511643,0.1767663603156053
0.19829671954686,0.2225382918214628,0.18792755258146676,0.17448729329559898,0.21892446014912606,0.19470223734201172,0.5567513852558628,0.3957725404544578,0.5414091111470368,0.5813012502558055,0.19552547321047828,0.18800265491777204
0.20948794089392117,0.23404808508863123,0.19876862816900476,0.18583247754680887,0.23017219728361155,0.20581686345728606,0.5672016198985611,0.40395230562109796,0.5523932742917073,0.5924992371008241,0.20668942785832753,0.19934595856716333
0.22069660321546405,0.24554723301461656,0.2096935808107188,0.19724776296146315,0.24150779441052297,0.21699901089797696,0.5776564105868891,0.4121470908406195,0.5634609668894742,0.603688309261595,0.2179043806494826,0.21075277867506398
0.23188145262033952,0.2569949211414225,0.22066100013242726,0.20869000468635912,0.2528886760210283,0.22820622848788213,0.5880770279411568,0.42032699835063714,0.5745690493976057,0.6148280706507196,0.22912823265659216,0.22218054708512958
0.24300204313220228,0.2683510592638343,0.23163041579088542,0.22011699445723595,0.2642732227458692,0.23939698812302915,0.5984255015808259,0.42846270964407385,0.585675341764357,0.6258788790366512,0.24031977032413698,0.2335876200733885
0.2540187366895119,0.27957628142941854,0.24256229747378594,0.23148746059877465,0.27562077135535984,0.250530684771675,0.6086646201245092,0.43652548546916076,0.5967386234289698,0.6368018460436966,0.25143866546843,0.24493327834824002
0.2648927031455312,0.29063194593852243,0.25341805489975827,0.24276106802459768,0.2868916147593885,0.26156763647430686,0.6187579311899711,0.4444871658294372,0.6077186333216733,0.6475588371520146,0.2624454752776151,0.25617772705045594
0.27558592026832746,0.3014801353442749,0.26416003781836983,0.25389841823726955,0.2980470020074155,0.2724690843436424,0.6286697413941269,0.4523201699837506,0.6185760698636833,0.658112471697617,0.27330164231166815,0.2672820957531792
0.28606117374077206,0.31208365645258573,0.2747515360101245,0.2648610493282962,0.3090491382884753,0.2831971925646284,0.6383651163530437,0.45999749644625665,0.6292725909672031,0.6684261228723682,0.28396949450239645,0.27820843846192506
0.29628205716054,0.3224060403221459,0.28515677928646377,0.2756114359781254,0.31986118493117494,0.2937150483944418,0.6478098806819397,0.46749272298641875,0.6397708140354224,0.6784639177239853,0.2944122451534389,0.28891973361458007
0.30621297204011094,0.3324115422644276,0.29534093748976625,0.28611298945614666,0.33044725940369496,0.30398666216248954,0.6569706179951844,0.4747800066290093,0.6500343159625181,0.688190737156038,0.3045939929402665,0.299379884081403
0.3158191278067682,0.342065141843684,0.30527012049334745,0.2963300576206914,0.3407724353137885,0.31397696727040836,0.6658146709062986,0.48183408365410807,0.6600276331336543,0.6975722159279485,0.3144797219101812,0.3095537171650241
0.3250665418025992,0.35133254287694987,0.3149113782014606,0.30622792491903206,0.3508027424087826,0.323651820192065,0.674310141027955,0.4886302695971033,0.6697162614249819,0.7065747426549919,0.32403530148231713,0.3194069846004456
0.3339220392844957,0.36018017343404074,0.3242327005492954,0.31577281238738375,0.36050516657557696,0.3329780004735562,0.6824258889719765,0.4951444592486914,0.6790666562036382,0.7151654598082957,0.3332274864476395,0.32890636255504135
0.342353253424153,0.36857518583755333,0.3332030175029797,0.3249318776509026,0.36984764984064455,0.3419232107332084,0.6901315343493384,0.5013531266548767,0.6880462323277488,0.7233122637148406,0.34202391696894563,0.33801945162855696
0.35032862530807096,0.3764854566628656,0.34179219905957786,0.33367321492368646,0.37879909037003173,0.3504560766615779,0.6973974557701669,0.5072333251169723,0.6966233641464248,0.7309838045574593,0.35039311858086436,0.34671477685311014
0.3578174039375531,0.3838795867381366,0.3499710552470913,0.3419658550087754,0.3873293424693573,0.35854614702145127,0.7041947908437391,0.5127626871915985,0.7047673854997654,0.7381494863748371,0.3583045021898558,0.3549617876931897
0.3647896462287075,0.390726901144307,0.3577113361244595,0.349779765298151,0.3954092165838142,0.36616389364784474,0.7104954361784845,0.5179194246906849,0.7124485897188564,0.7447794670615128,0.36572836407421233,0.36273085804565713
0.37121621701244584,0.3969974492150981,0.36498573178155813,0.35708584977273616,0.4030104792981679,0.3732807114480042,0.7162720473819829,0.5226823286814678,0.7196382296257704,0.7508446583678774,0.3726358858840575,0.36999328623974503
0.3770687890344838,0.4026620045370122,0.3717678723392008,0.36385594900239593,0.41010585333675725,0.379868918401406,0.721498039060966,0.5270307694864933,0.7263085175335673,0.756316725900174,0.3789991346413465,0.37672129503705815
0.3823198429553417,0.40769206494933335,0.37803232794913766,0.3700628401459372,0.4166690175634941,0.3859017555597563,0.7261475848213164,0.5309446966836147,0.7324326252462936,0.7611680891204993,0.3847910627398663,0.3828880316315727
0.3869426673503428,0.41205985254412636,0.3837546087940567,0.3756802369511079,0.42267460698186343,0.39135338704699046,0.7301956172680686,0.5344046391059929,0.737984684058983,0.7653719213468021,0.38998550794523523,0.388467567649637
0.3909113587096161,0.4157383136662376,0.3889111650875827,0.38068278975459835,0.428098212734924,0.3961989000592748,0.7336178280054078,0.5373917048420984,0.7429397847576562,0.7689021497528836,0.39455719339490375,0.393434899149971
0.394200821438093,0.4187011189132939,0.39347938707427765,0.3850460854820402,0.43291638210530636,0.4004143048650046,0.7363906676366712,0.5398875812357091,0.7472739776193207,0.7717334553683983,0.39848172759815326,0.39776594662366604
0.39678676785550987,0.4209226631357038,0.39743760502964115,0.38874664764800687,0.4371066185152158,0.4039765348048057,0.7384913457643466,0.5418745348859106,0.7509642724119714,0.7738412730788532,0.4017356044360977,0.4014375549941859
0.39864571819640704,0.4223390019046742,0.4007650892601096,0.39176193635601403,0.4406473815264298,0.4068634462915337,0.7398960475179612,0.5433354116470974,0.7539886383945896,0.7751957383094541,0.4042962031616815,0.40442749361736585
0.3997359310082368,0.42288670930695804,0.40344205010305634,0.39407034829851806,0.44351808684029925,0.4090538188102739,0.7405137445105375,0.5442390594915987,0.7563260043171438,0.775700148731586,0.40614178839968174,0.4067144562814128
0.3999603272537444,0.42259427522527493,0.40544963792679245,0.395651216756918,0.44569910629774817,0.4105273549183415,0.7403271966191073,0.5445163163307638,0.75795625842059,0.7753524715429014,0.40725150883982947,0.40827806120690574
0.3993376239153756,0.4214918267756853,0.40676994313056625,0.3964838709232223,0.4471717678792739,0.411262791920933,0.7393701030490996,0.5441812164245967,0.75886024843687,0.7741846142484723,0.4075378138766438,0.40908621246964083
0.39790201863575997,0.41960952316461114,0.40735437227565297,0.39646715733546256,0.4479162173430501,0.41115663771368455,0.737676081419026,0.5432579882231929,0.7590106090065496,0.7722284261838979,0.4069529051799783,0.4090276126103729
0.39568757910360236,0.4169776538159633,0.4071063536564659,0.39557027431617753,0.4478291698708518,0.410186018200901,0.7352781258779122,0.5417707569083039,0.7582959646225489,0.7695157049775802,0.40553410893920844,0.4081118307667082
0.3927283532334406,0.41362693110658333,0.40605451938860926,0.3938326775251399,0.4468894232413347,0.4083898100194342,0.7322070181498823,0.5397436356401584,0.7567201957297256,0.7660782490744149,0.40331862387663153,0.40637731858558945
0.38905807993098707,0.40958823467642685,0.4042361766048811,0.3912934912188864,0.44513609476231975,0.4058065252145518,0.7284928292992476,0.5372007051467012,0.7543237169265807,0.761947949031047,0.4003433365405482,0.40386200831580565
0.38471026876912645,0.4048924876351783,0.40168809844923997,0.38799136743160584,0.4426078561422877,0.4024742103487491,0.724165517161834,0.5341659363469041,0.7511463826356147,0.7571566755593337,0.396644748643573,0.4006033806356361
0.3797182467538491,0.3995706451828761,0.3984465484918368,0.3839644752678096,0.4393428415940975,0.39843043899683644,0.7192549579868388,0.5306631711216108,0.74722751394917,0.7517362412019587,0.39225897339302174,0.3966384599853228
0.37411515832462566,0.393653694609823,0.3945472807292111,0.3792505009022438,0.43537864783425045,0.39371231174587945,0.7137909464370837,0.5267161223133813,0.7426058986296473,0.7457184003321276,0.3872217354908843,0.3920038145670344
0.3679339653544067,0.38717265529658473,0.39002553958429154,0.3738866475798913,0.4307523340828907,0.3883564561951991,0.7078031955890158,0.5223483737264933,0.7373197911095042,0.7391348491535684,0.3815683711338231,0.3867355563448658
0.3612074471496229,0.38015857871399145,0.3849160599063943,0.36790963561597056,0.4255004220638058,0.3823990269563717,0.7013213369327052,0.5175833801269416,0.7314069124912563,0.7320172257005293,0.37533382801317344,0.38086934104483755
0.3539682004501846,0.37264254842313693,0.37925306697122463,0.36135570239593606,0.4196588960044251,0.3758757056532283,0.6943749203718477,0.512444467242438,0.7249044505474764,0.7243971098377805,0.3685526653149433,0.3744403681548964
0.34624863942948275,0.3646556800753781,0.37307027648087576,0.3542606023754782,0.4132632026358213,0.3688217009218556,0.6869934142237628,0.5069548317624117,0.7178490597207947,0.7163060232606134,0.36125905371981415,0.36748338092491567
0.33808099569438793,0.3562291214123358,0.36640089456382935,0.3466596070805227,0.40634825119271,0.3612717484105954,0.6792062052193956,0.5011375413380089,0.7102768611238993,0.7077754294948417,0.3534867754031398,0.3600326663666938
0.3294973182852507,0.3473940522658951,0.35927761777495604,0.33858750510723185,0.3989484134134498,0.3532601107800446,0.6710425985033144,0.495015534582093,0.7022234425395356,0.6988367338967991,0.3452692240349475,0.3521220552539562
0.3205294736759017,0.33818168455820385,0.35173263309551406,0.3300786021220038,0.3910975235400414,0.3448205777030555,0.6625318176337127,0.4886116210692446,0.6937238584205063,0.6895212836533422,0.33663940477993703,0.343784922122354
0.31120914577365183,0.3286232623016743,0.3437976179331507,0.3211667208614724,0.3828288783181289,0.3359864658647357,0.6537030045824088,0.48194848133576174,0.6848126298896717,0.679860367781848,0.3276299342974815,0.3350541852694645
0.30156783591929165,0.3187500615989823,0.3355037401219013,0.31188520113250706,0.37417523699699873,0.3267906189624476,0.644585219734845,0.4750486668796591,0.6755237447399498,0.6698852171302159,0.3182730407416266,0.32596230675479104
0.291636862887092,0.30859339064306696,0.3268816579221901,0.30226689981221366,0.3651688213295805,0.31726540770580935,0.6352074418900878,0.4679346001606688,0.6658906574343164,0.6596270043768655,0.30860056376109096,0.316541292399763
0.2814473628848039,0.2981845897171317,0.317961520020829,0.2923441908479338,0.35584131557244664,0.3074427298166939,0.6255985682608294,0.4606285746002403,0.6559462891058037,0.6491168440307392,0.29864395449926645,0.306822691787736
0.27103028955365777,0.28755503119464315,0.3087729655310189,0.2821489652572448,0.346223866485812,0.29735401002922984,0.6157874144733851,0.45315275458154003,0.6457230275575025,0.6383857924313,0.28843427559421764,0.2968375982639917
0.2604164139683647,0.27673611953933197,0.2993451239923493,0.2717126311279602,0.3363470833335349,0.2870302000898005,0.605802714567696,0.4455291754494516,0.635252727262561,0.6274648477485327,0.27800220117868213,0.2866166489357378
0.2496363246371152,0.2657592913051921,0.2897066153707971,0.2610661136181288,0.3262410378831155,0.2765017787570448,0.5956731209973265,0.4377797435105758,0.624566709364184,0.6163849499829435,0.2673780168800703,0.27619002467210796
0.23872042750158037,0.2546560151364817,0.27988555005872884,0.2502398549560361,0.31593526440569736,0.2657987518018566,0.5854272046294664,0.4299262360332306,0.6136957616756347,0.6051769809655596,0.2565916198204654,0.26558745010416224
0.227698945936911,0.2434577917677221,0.2699095288748988,0.23926381444020275,0.3054587596760672,0.2549506520073853,0.5750934547449295,0.4219903012474513,0.6026701386802333,0.5938717643579304,0.24567251861662398,0.2548381936248864
0.21660192075173812,0.23219615402369867,0.2598056430644495,0.2281674684393862,0.2948399829726538,0.24398653916903526,0.5647002790381547,0.41399345834499035,0.5915195615313581,0.5825000656521264,0.23464983337997514,0.2439710673891926
0.20545921018817276,0.22090266681946055,0.2496004742989127,0.2169798103925787,0.2841068560775291,0.23293500009446613,0.5542760036172045,0.4059570974793168,0.5802732180524445,0.5710925921707395,0.22355229571662136,0.23301442731391933
0.19430048992180562,0.20960892716032015,0.23932009467620782,0.20572935080900934,0.27328676327640766,0.22182414860359312,0.5438488730037667,0.3979024797656179,0.5689597627369849,0.5596799930668831,0.21240824872733752,0.22199617307783043
0.18315525306170757,0.19834656414185406,0.22899006672064293,0.19444411726814234,0.2624065513586474,0.21068162552858608,0.5334470501331532,0.3898507372807972,0.5576073167485304,0.5482928593241921,0.20124564700757144,0.2109437481216164
0.1720528101504302,0.1871472389499024,0.21863544338291452,0.1831516544196785,0.25149252961724816,0.19953459871387028,0.5230986163543008,0.38182287306347595,0.5462434679206885,0.5369617237568229,0.1900920566474448,0.19988413964789362
0.16102228916400382,0.17604264486056873,0.20828076804010762,0.17187902398355426,0.24057046984885322,0.1884097630161265,0.5128315714297702,0.3738397611139921,0.534895270757125,0.5257170610094534,0.17897465523175085,0.18884387862120472
0.15009263551193983,0.16506450724022062,0.19795007449569563,0.16065280474994156,0.22966560635374858,0.17733334030429054,0.5026738335357472,0.36592214639440107,0.5235892464315626,0.5145892875572826,0.1679202318399568,0.1778490397680182
0.13929261203722923,0.15424458354548912,0.18766688697953998,0.14949909257924865,0.21880263593586302,0.16633107945955333,0.4926532392620419,0.3580906448284758,0.5123513827877815,0.5036087617060313,0.15695518704620234,0.1669252415767287
0.12865079901634327,0.1436146633232693,0.17745422014789142,0.13844350040211978,0.20800571790276762,0.1554282563753611,0.4827975436120886,0.35036574330170567,0.50120713433962,0.4928057835919417,0.14610553291930004,0.1560976462976571
0.11819559415923268,0.13320656821071938,0.16733457908338795,0.1275111582194348,0.19729847406567713,0.14464967395741546,0.4731344200029466,0.3427677996612978,0.4901814222709737,0.4822105951817772,0.13539689302273578,0.14539095994305037
0.10795521260932872,0.12305215193526185,0.15732995929505691,0.11672671310230957,0.18670398873944855,0.13401966212367292,0.46369146026529945,0.3353170427161761,0.47929863443579523,0.4718533802728233,0.12485450241466814,0.13482943228708136
0.09795768694354273,0.11318330031458246,0.14746184671831386,0.10611432919209575,0.1762448087425816,0.12356207780434553,0.45449617464345493,0.3280335722369818,0.4685826253580952,0.4617642644928861,0.11450320764792843,0.12443685686584893
0.08823086717226561,0.10363193125663109,0.13775121771496235,0.09569768770038081,0.1659429433972193,0.11330030494190035,0.44557599179534624,0.32093735895607356,0.4580567162319415,0.45197331530029367,0.10436746677002091,0.11423657097737847
0.07880242073936887,0.09442999475962104,0.12821853907319491,0.08549998690898884,0.15581986452914695,0.10325725449105987,0.43695825879252986,0.3140482445675269,0.4477436949214598,0.4425105419838956,0.09447134932312325,0.10425145568162134
0.06969983252220348,0.08560824038930277,0.11888376800759208,0.07554394216997891,0.14589650646779276,0.09345536441880113,0.428670241120188,0.30738594172713457,0.4376658159608329,0.4334058956630624,0.08483853634408577,0.09450393580045455
0.060950404831600524,0.07715904303132261,0.10976635215912305,0.06585178590564633,0.13619326604622814,0.08391659970435779,0.4207391226771262,0.3009700340524065,0.4278448005543013,0.4246887589405616,0.07549232036443157,0.08501597991768158
0.05258125741187157,0.069068202239224,0.10088522959514512,0.05644526760852233,0.12673000260116687,0.07466245233921737,0.4131746110344318,0.29481997612256994,0.41830183657616304,0.4163560470788476,0.06645560541035678,0.07580910037903206
0.04461235870744703,0.06133077616560677,0.09225882880940474,0.047345653841374215,0.11752603797296574,0.06571394132712322,0.4059548853784599,0.28894937378156227,0.4090575785707735,0.4083922292202282,0.05775090700273049,0.06690435329216134
0.037027751799985284,0.053941600917820395,0.0839050687220359,0.03857372823720461,0.1086001565056243,0.057091612684073596,0.3990712706032138,0.28334617970401077,0.4001321477525458,0.40079123467828237,0.04940035215709475,0.05832233852665128
0.029817307035586535,0.04689529055796305,0.07584135867956147,0.030149791499252586,0.09997060504678443,0.048815539438322564,0.39251526291415745,0.27800331954724034,0.39154513200595037,0.39354684775122395,0.04142567938366455,0.050083199714009694
0.02297282885029956,0.040186237102882466,0.06808459845489268,0.022093661400993024,0.09165509294773189,0.040905321630378785,0.3862782341859433,0.27291487847429236,0.38331558588551506,0.3866527077219021,0.03384435838948546,0.042206624247670355
0.01648608308109988,0.033808610524175914,0.06065117824732932,0.014424658324347087,0.08367079206339441,0.033380008017356425,0.3803514319624123,0.26807491213092516,0.37546203061582595,0.380102308857801,0.026648839616070202,0.03470962955877627
0.01034879696588873,0.027756358748189162,0.05355648627247073,0.007152050651016187,0.07603433675234236,0.026246875850453558,0.37472597945659303,0.26347744664561296,0.36800245409152543,0.37388900041103934,0.019827272497736116,0.02758799499262414
0.004552659143494647,0.022023207656017778,0.046801192862057514,0.0002652387691191825,0.06875984911393421,0.019494827600972917,0.36939287555070327,0.2591164786295468,0.36094932730595813,0.3680059866183713,0.013368538641992094,0.020828765807961017
-0.0009106803463277994,0.01660266108350659,0.04037173908976843,-0.006247781099590646,0.061843318802980496,0.013111981834983058,0.3643429947961488,0.25498597517663446,0.35429511189677365,0.3624463267011861,0.00726166522554437,0.014419449095274008
-0.006049610062897433,0.011488000821249358,0.034254399581169166,-0.012398815698056497,0.055272352787587874,0.0070866505099257265,0.35956708741352383,0.2510798738634999,0.3480282923643967,0.3572029348655076,0.0014958249942966049,0.008347739091207399
-0.010872557164606497,0.0066722866145892575,0.028435649855571992,-0.018199474733918496,0.04903479007334535,0.0014073389746160898,0.3550557792926109,0.2473920827494837,0.3421375771063577,0.35226858030199504,-0.00393966373664962,0.00260151717856284
-0.015387987408920771,0.0021483561636190043,0.022902166326034673,-0.02366117087951296,0.0431186716695824,-0.003937254030757382,0.3507995719923809,0.24391648037664299,0.3366118784855507,0.34763588718594235,-0.009055337082995477,-0.00283114811370057
-0.019604414659977497,-0.0020911761168936516,0.01764090144892453,-0.02879512772813622,0.03751225227801764,-0.008958257530817056,0.34678891066266393,0.24064691517023434,0.33144026881331196,0.3432973224767308,-0.013861594206198573,-0.007961981529651812
-0.023530595249583758,-0.006053944447964206,0.01264061998413039,-0.033612542441568215,0.032204239240344615,-0.01366706080458944,0.3430155725466948,0.23757719318296439,0.326611080524576,0.33924494650565234,-0.018368873426423796,-0.012802100801604382
-0.02717552007582829,-0.009747830655815058,0.007891836541231857,-0.038124579137937355,0.02718378282425818,-0.018075295803436826,0.33947261053409833,0.23470107859322484,0.3221119427585987,0.3354704231153026,-0.022587645062994773,-0.017362032922957595
-0.030548226562419206,-0.013180939645776976,0.00338532927623331,-0.042342211533256784,0.022440245046095625,-0.022194418725396306,0.3361530098104261,0.23201230556230273,0.31793065192280584,0.33196526096123635,-0.02652824104838092,-0.021652101416300765
-0.033657790732138135,-0.01636159836843164,-0.0008879227611145978,-0.046276216308236376,0.01796318992593448,-0.026035692377131728,0.33304963123041753,0.2295045787342015,0.31405520838998663,0.3287208236836427,-0.030200847745854166,-0.025682442658066032
-0.036513327206840286,-0.019298355819611302,-0.00493673962731548,-0.049937173108282294,0.013742383487592418,-0.02961018617393358,0.3301552113180009,0.2271715732356411,0.3104738164982936,0.3257283299073466,-0.033615505949488866,-0.02946300587852817
-0.03912398920745442,-0.02199998304039912,-0.008769740485126742,-0.053335464543497496,0.009767793758627113,-0.032928776139718764,0.32746236226629255,0.22500693467605812,0.30717488455124237,0.32297885324180764,-0.036782110884161896,-0.033003553161804686
-0.04149896855398275,-0.02447547311712872,-0.012395343603560115,-0.0564812761886816,0.0060295907703361296,-0.036002144907031214,0.32496357193759734,0.2230042791476055,0.304147024817712,0.32046332228112034,-0.039710412205552444,-0.036313659445855774
-0.04364749566550086,-0.026734041181384914,-0.015821766357881198,-0.05938459658333065,0.0025181465577572906,-0.03884078171704123,0.32265120386340823,0.22115719322515276,0.3013790535319446,0.31817252060401435,-0.042410014000141986,-0.03940271252248422
-0.04557883956015813,-0.028785124410002864,-0.019057025229609757,-0.062055217231637226,-0.0007759648403315791,-0.0414549824195458,0.32051749724440676,0.21945923396628592,0.2988599908935458,0.3160970867738544,-0.04489037478521482,-0.042279913037335755
-0.047302307855177236,-0.0306383820250687,-0.022108935806519563,-0.06450273260249077,-0.0038619673814126107,-0.0438548494729685,0.31855456695046297,0.21790392891130758,0.29657906106748416,0.31422751433863993,-0.04716080750885743,-0.044954274489898485
-0.04882724676685443,-0.032303695293919125,-0.024985112782638284,-0.0667365401294771,-0.006748883019227873,-0.046050291944359605,0.316754403520635,0.21648477608323682,0.2945256921840917,0.31255415183100566,-0.049230479549958704,-0.04743462323350359
-0.050163041110559435,-0.03379116752914197,-0.02769296995824787,-0.06876584021087861,-0.009445531703779458,-0.04805102550939614,0.3151088731631695,0.21519524398780904,0.29268951633906376,0.3110672027682215,-0.05110841271821024,-0.04972959847532463
-0.0513191143007356,-0.03511112408857537,-0.030239720239884332,-0.07059963620967444,-0.011960531381329312,-0.04986657245238154,0.31360971775550134,0.21402877161347647,0.2910603695934586,0.30975672565219176,-0.05280348325410565,-0.0518476522763779
-0.05230492835089968,-0.036274112375308414,-0.03263237564033749,-0.07224673445354016,-0.014302297994399332,-0.051506261666246056,0.31224855484425384,0.2129787684314077,0.2896282919736982,0.30861263396945626,-0.05432442182894147,-0.05379704955152252
-0.05312998387364202,-0.037290901837680995,-0.034877747278651464,-0.07371574423484795,-0.016479045481771357,-0.05297922865254658,0.3110168776452389,0.2120386143954877,0.2883835274715673,0.3076246961911897,-0.0556798135448162,-0.0555858680694603
-0.053803820080626244,-0.03817248396928375,-0.036982445380124296,-0.07501507781066673,-0.018498785778487223,-0.05429441552146641,0.30990605504345636,0.21120165994231818,0.2873165240442143,0.30678253577320175,-0.0568780979346312,-0.05722199845273569
-0.05433601478258995,-0.038930072308957835,-0.03895287927630803,-0.07615295040276181,-0.020369328815848516,-0.05546057099181584,0.3089073315930947,0.21046122599121722,0.2864179336141505,0.30607563115593706,-0.05792756896208992,-0.05871314417773569
-0.05473618438934378,-0.03957510244079547,-0.04079525740500886,-0.07713738019759522,-0.022098282521417066,-0.056486250391031445,0.3080118275175308,0.20981060394421946,0.2856786120692509,0.3054933157644754,-0.058836375021698376,-0.0600668215746903
-0.05501398390977208,-0.04011923199413947,-0.04251558731028711,-0.07797618834632544,-0.0236930528190146,-0.05737981565517673,0.3072105387093298,0.20924305568607598,0.2850896192627532,0.3050247780085314,-0.05961251893876524,-0.06129035982767194
-0.055179106951832674,-0.040574340643583486,-0.04411967564245701,-0.07867699896480784,-0.025160843628722517,-0.05814943532894168,0.30649433673024495,0.20875181358425454,0.2846422190132587,0.3046590612824548,-0.06026385796940114,-0.062390900974596056
-0.05524128572255699,-0.0409525301089718,-0.04561312815808678,-0.07924723913359392,-0.026508656866882422,-0.05880308456564307,0.3058539688112184,0.20833008048893922,0.28432787910473206,0.3043850639652304,-0.06079810380051962,-0.06337539990722038
-0.05521029102804993,-0.041266124155399334,-0.04700134971999888,-0.07969413889793225,-0.027743292446095635,-0.059348545127224005,0.3052800578523804,0.20797102973303067,0.28413827128650077,0.30419153942047783,-0.061222822549836436,-0.06425062437114563
-0.05509593227348974,-0.041519073804900025,-0.04828954429726963,-0.08002473126776752,-0.02887134827522382,-0.059793405384254594,0.30476310242304944,0.20766780513214608,0.284065271273256,0.304067095996452,-0.061545434765869905,-0.0650231549658152
-0.05490805746312848,-0.04169007778574188,-0.04948271496522957,-0.08024585221774148,-0.02989922025938807,-0.06014506031593127,0.3042934767617326,0.20741352098461918,0.28410095874505187,0.30400019702604236,-0.061773215427940474,-0.06569938514451501
-0.054656553200291426,-0.04178596989710623,-0.05058566390546327,-0.08036414068719214,-0.030833102299969856,-0.06041071151007731,0.30386143077612504,0.20720126207150016,0.2842376173473059,0.30398447278388807,-0.06191329394617142,-0.06628552121437375
-0.054351344687377526,-0.04181597556933293,-0.05160299240580921,-0.08038603858015408,-0.03167898629461026,-0.060597367163142624,0.3034748713027259,0.20702408365655567,0.2844677346907989,0.30404407026112856,-0.061972654161488304,-0.06678758233636285
-0.054002395725859215,-0.041788492527604866,-0.052539100860360066,-0.08031779076535872,-0.03244266213721058,-0.06071184208020369,0.30315399139241656,0.20687501148626897,0.2847840023516748,0.3041747281467031,-0.061958134345618955,-0.06721140052529652
-0.05361970871628236,-0.04171109079194769,-0.0533981887694625,-0.08016544507623397,-0.03312971771793194,-0.06076075767496357,0.3028901423322544,0.2067470417898399,0.28517931587144074,0.3043664420431881,-0.061876427201093924,-0.06756262064983158
-0.05319260649831063,-0.04159051267723016,-0.05418425473971724,-0.07993485231090414,-0.0337455389231953,-0.060750541969752214,0.30267513648706545,0.2066512172887699,0.2856467747569673,0.3046101328532774,-0.06173407986124587,-0.06784670043246749
-0.052702197780505236,-0.04143267279316376,-0.05490109648397898,-0.07963166623219041,-0.034295309635681906,-0.06068742959552585,0.30250173561327753,0.20659819290358286,0.2861796824804883,0.30489764677978276,-0.06153749389021029,-0.06806891044954637
-0.052159132485642315,-0.041242658044303215,-0.05555231082135669,-0.07926134356761029,-0.03478401173433243,-0.06057746179186761,0.3023636508589194,0.20658042335767088,0.2867715464796006,0.3052217553256333,-0.06129292528292489,-0.06823433413125317
-0.051573219987106386,-0.04102472763004569,-0.05614129367721319,-0.07882914400937807,-0.0352164250943479,-0.06042648640698714,0.3022555427636216,0.20659114038016543,0.28741607815726455,0.305576155293876,-0.061006484465129775,-0.06834786776161553
-0.05095318381251186,-0.04078231304463169,-0.05667124008316536,-0.07834013021440454,-0.03559712758718919,-0.06024015789772086,0.3021730212586157,0.20662435311679533,0.2881071928818036,0.30595546878767543,-0.06068413629336753,-0.06841422047850378
-0.05030666164370334,-0.04051801807714454,-0.05714514417708422,-0.07779916780429723,-0.03593049508057703,-0.06002393732953171,0.3021126456667349,0.20667484812988648,0.2888390099869045,0.3063552432103137,-0.06033170005498323,-0.06843791427363072
-0.049640205316755406,-0.040233618811510344,-0.0575657992030947,-0.07721092536535991,-0.03622070143849222,-0.0597830923765092,0.3020719247024137,0.20673818939836183,0.2896058527716172,0.30677195126519097,-0.05995484946812438,-0.06842328399255218
-0.04895928082197259,-0.039930063626498195,-0.05793579751157603,-0.0765798744485933,-0.03647171852117537,-0.05952269732136963,0.3020493164716879,0.2068107183177414,0.290402248500355,0.3072029909558245,-0.05955911268174087,-0.06837447733466662
-0.048268268303889694,-0.039607473195720194,-0.05825753055916122,-0.07591028956969456,-0.036687316185127154,-0.05924763305545601,0.30204422847219475,0.2068895537001424,0.2912229284028945,0.3076466855858496,-0.05914987227558517,-0.06829545485321498
-0.0475704620612713,-0.03926514048763131,-0.05853318890873756,-0.07520624820905736,-0.036871062283108116,-0.058962587078737694,0.302057017593173,0.20697259177427915,0.2920628276743752,0.3081022837590192,-0.05873777568652741,-0.06818998995528104
-0.04686807054711221,-0.038901530765529435,-0.05876476222944609,-0.07447163081177213,-0.0370263226641386,-0.05867205349981097,0.3020889901154625,0.20705850618546315,0.2929170854753003,0.30856995937920373,-0.0583356372695325,-0.06806166890179131
-0.046162216368637154,-0.03851428158755533,-0.058954039296682206,-0.07371012078762572,-0.037156261173499364,-0.05838033303589847,0.3021424017115046,0.2071467479956029,0.2937810449315359,0.3090508116503913,-0.057939774398295445,-0.06791389080751488
-0.04545293628730105,-0.038100202806692726,-0.05910260799209533,-0.0729252045111018,-0.03726383965273062,-0.05809153301284982,0.30222045744534226,0.207237545683204,0.29465025313431176,0.3095468650766878,-0.057545433716512884,-0.06774308870025797
-0.04473918121878857,-0.03765527657076832,-0.0592118553035887,-0.07211297085081195,-0.03735181793963268,-0.05779983303706405,0.30232731177261934,0.20733190514336927,0.2955204611402204,0.3100610694623167,-0.057147357537003084,-0.06753428513568469
-0.04401881623301484,-0.03717465732245158,-0.05927405571714132,-0.0712599472083149,-0.037421657132138464,-0.05749455331871719,0.3024680685405816,0.20743160968779858,0.29639043504051354,0.3105972999116191,-0.05673978384170509,-0.067289481125343
-0.04328862055412464,-0.03665267179925516,-0.05927650060021679,-0.07036845823249628,-0.03745973661944231,-0.05717908937308269,0.30264878098807585,0.20753922004478892,0.29727330723416023,0.3111603568290538,-0.056316446281679665,-0.06701051012119227
-0.04254428756049309,-0.03608281903353436,-0.059219855670847754,-0.06944032084696933,-0.03746339699947024,-0.05685577818276664,0.3028764517455502,0.20765807435923436,0.29816795116828715,0.31175596591919724,-0.05587057417710854,-0.06669798318462308
-0.041780424784725066,-0.035457770352487455,-0.059103758405153625,-0.06847611768024559,-0.0374343592942749,-0.056525738378609976,0.3031590328350545,0.20779228819262624,0.2990714088235729,0.3123907781867435,-0.055394892517294826,-0.06635128898645645
-0.0409905539136558,-0.03476936937815585,-0.058926636087767485,-0.06747519706573514,-0.037373153269798814,-0.05618887023968823,0.30350542567023975,0.2079467545230529,0.29998193237298076,0.3130723699365044,-0.054881621960662756,-0.06596859380694431
-0.0401671107883503,-0.03400863202742367,-0.05868570581183626,-0.06643567304174652,-0.03727911743587468,-0.05584385569331178,0.3039254810563583,0.20812714374519972,0.3008989841817589,0.3138092427734092,-0.054322478834758076,-0.06554684153576931
-0.039301445404103755,-0.03316574651201794,-0.05837697447902092,-0.06535442535148672,-0.037150399046225496,-0.05548815831502559,0.3044299991902638,0.2083399036703492,0.30182323680744005,0.31461082360250514,-0.05370867513624759,-0.065081753672045
-0.03838382191010866,-0.03223007333919768,-0.057995238804562976,-0.06422709944425979,-0.03698395409878573,-0.0551180233261654,0.3050307296573572,0.20859225952709012,0.3027565730015701,0.31548746462971045,-0.053030918530332094,-0.06456782932540701
-0.037403375781119644,-0.031190234038568656,-0.05753473788763476,-0.06304826084372243,-0.03677558873777468,-0.054728162844699724,0.30573997807905623,0.20889230525702462,0.3037023082697421,0.3164505404184208,-0.05227933672231174,-0.06399848576456899
-0.0363479954011231,-0.030034356483401418,-0.05699095750712622,-0.06181182196162606,-0.036520073726543784,-0.05431088563333981,0.3065695185299566,0.2092492559388349,0.3046658062292108,0.31751271624191807,-0.05144326835205936,-0.0633664470208922
-0.035204414676217995,-0.028749823623844317,-0.05635872565345321,-0.06051060552139394,-0.0362110790445294,-0.053857016539580346,0.30753174957819396,0.20967317817925787,0.30565385513272475,0.31868763439857906,-0.05051149674541776,-0.062663341462973
-0.033958142890585546,-0.027323209614058687,-0.055631543980841365,-0.05913623547836657,-0.03584132665577551,-0.053356222024650304,0.30864012570966004,0.2101748854163553,0.30667453158030056,0.31998970760401074,-0.04947237330364412,-0.06187958510965543
-0.032593564278059,-0.02574026624493227,-0.054801671140886264,-0.05767911152924649,-0.03540241598427387,-0.052796967138403254,0.3099090808957292,0.21076595986437685,0.30773714444319955,0.3214342301191692,-0.04831376555205949,-0.06100437442576779
-0.031093977224336426,-0.023985917602517906,-0.053860155591718084,-0.056128399076240156,-0.03488475520205129,-0.05216649857994996,0.3113539985011926,0.21145876115364826,0.3088522127863003,0.3230374215024884,-0.04702303668634006,-0.060025683485740576
-0.029441594269346193,-0.022044260067711582,-0.05279683559998101,-0.05447202922645264,-0.03427756122502475,-0.05145084469663547,0.3129912112824427,0.21226642633109213,0.3100314658667657,0.3248164266125199,-0.04558704557128346,-0.058930263973434684
-0.027617542107246613,-0.01991084598751138,-0.05160033924083292,-0.05269669879188718,-0.033568859713001276,-0.050634815484039704,0.3148380013874737,0.2132028698602284,0.3112878431340437,0.3267893156079334,-0.0439921467408083,-0.05770364518214214
-0.02560186158642607,-0.017605908831879964,-0.05025808439794528,-0.05078787028944561,-0.03274548506967821,-0.04970200258597728,0.3169126003558806,0.21428278362117406,0.3126354942298667,0.32897508394751585,-0.04222419039795476,-0.05633013401458546
-0.023373507709502826,-0.015078537940749502,-0.048756278763503844,-0.04872977194092827,-0.031793080442643194,-0.04863477929449761,0.3192341891188603,0.21552163691064305,0.31408977898825197,0.331393652390172,-0.04026852241488402,-0.054792814982918145
-0.020910349633325498,-0.012274881899926003,-0.04707991983820784,-0.04650539767303406,-0.03069609772337368,-0.047414300549884575,0.32182289799921093,0.2169356764419467,0.31566726743550155,0.3340506734545766,-0.038109984332878676,-0.05307355020872441
-0.01818917066897242,-0.009146490354192266,-0.04521279493127041,-0.044096507117360045,-0.029437797547237434,-0.04602050294065717,0.3246827402651632,0.21854192634499334,0.31738573979020235,0.33693014127879023,-0.035732913362342626,-0.051152979423019364
-0.015185668281752171,-0.005650314007307857,-0.0431374811604186,-0.04148362561040201,-0.02800024929349246,-0.04443210470356868,0.32781696574186614,0.22035818816628827,0.31926418646322574,0.3400867221370164,-0.03312114238280075,-0.049010519966248584
-0.011874454091203369,-0.0017487046220093188,-0.0408353454518931,-0.03864604419355401,-0.02636433108528664,-0.042626605723607366,0.3312777019186667,0.22240304086893406,0.321322808057728,0.3435749548037873,-0.03025799994289947,-0.04662436678828894
-0.008229053871094499,0.0025905849799906532,-0.03828654454044842,-0.03556181961310878,-0.024509729789658284,-0.04058028753399619,0.33511239041628954,0.22469584083263044,0.32358301536915024,0.3474428349676639,-0.02712631026040646,-0.04397149244844764
-0.004233332753966472,0.007394400918001906,-0.03547002496935321,-0.032207774320257336,-0.022414941017535762,-0.038268213316192665,0.33936213495822587,0.2272453027680067,0.32606742938521815,0.351731815231236,-0.02370839322221042,-0.0410276471154629
0.00011553351911591792,0.012684188252357953,-0.032363523090389576,-0.028559496471089227,-0.020057269123737544,-0.03566422789988917,0.344061701370733,0.23005775399521206,0.3287998812859422,0.35647680511112145,-0.019986064384321548,-0.03776735856750361
0.004861385840638478,0.018475990984415512,-0.028943565063853614,-0.02459133992659246,-0.017412827206972216,-0.03274095776301282,0.3492395175828343,0.23316609942189861,0.3318054124436176,0.36170617103796754,-0.015940634971871162,-0.034163932192169635
0.010043790542034508,0.024780452056554318,-0.025185466858555147,-0.02027642425265341,-0.014456537109838625,-0.029469811031725232,0.3549176736263195,0.23659873560560535,0.3351102744228245,0.36744173635645005,-0.01155291187911195,-0.03018945098649144
0.015694895531185353,0.03160281335217767,-0.021063334251817924,-0.01558663472005709,-0.011162129418825831,-0.025820977480422933,0.3611119216357446,0.24037874767410886,0.3387419289804276,0.3736987813252732,-0.006803197669417725,-0.0258147755569303
0.021839430292420137,0.03894291569571185,-0.016550062829479392,-0.010492622304486807,-0.007502143464312774,-0.02176342853173713,0.3678316758484318,0.24452390932542295,0.34272904806557614,0.3804860431171701,-0.0016712905752837267,-0.021009544119378422
0.028494705886515682,0.046795198852606606,-0.011617337985890963,-0.004965046193331039,-0.003447927320568865,-0.017266469755912818,0.3750800126044693,0.24904668282779896,0.3471015138197047,0.38780571581890255,0.003863515501673755,-0.01574362660885109
0.03567061495069687,0.05514870152933452,-0.006246186869373534,0.0009962596076364596,0.0010303507180098545,-0.01232856837530837,0.38285367034671197,0.25395421901972565,0.3518887180627911,0.3956534504312609,0.00982243099071691,-0.010015227371660985
0.04336963169863619,0.063987061373392,-0.0004345371429758365,0.007407174896696747,0.005943451866168525,-0.0069314184232505925,0.3911430496207803,0.25924835730992907,0.35709482366439693,0.4040183548690644,0.01622717065198696,-0.0038094423652394764
0.05158681192045394,0.07328851497329819,0.005839548727756896,0.014290654850439205,0.011301964617281411,-0.001050876864089929,0.3999322130750613,0.26492562567737293,0.3627385157509673,0.412882993961161,0.02309995357650367,0.0028933749574530706
0.060309792982718595,0.08302589785859586,0.012592685863770575,0.021662427065635304,0.01712869676622203,0.005330057597599521,0.40919888546070854,0.2709772406712582,0.3688416945281809,0.4222233894504269,0.030463503186165527,0.010105740823812142
0.06951879382844595,0.09316664449985063,0.01983485694092773,0.029530991559239227,0.023439916562521614,0.012221244517019674,0.41891445363164104,0.2773891074110232,0.375419614618383,0.4320090199937677,0.03834104723374993,0.01783304114158959
0.07918661497709997,0.10367278830865176,0.027569412190007633,0.03789762076838721,0.03024535271036863,0.01962540170914847,0.4290439665445446,0.2841418195863437,0.3824808850605864,0.44220282116211707,0.04675631780291282,0.026073531498893236
0.08927863852459234,0.11450096163761131,0.03579306939670597,0.04675635955039792,0.03754819436860938,0.027538105248739883,0.4395461352588712,0.29121065945713304,0.3900274693104704,0.45276118544043775,0.055732241729024856,0.03481833716418716
0.09975282814328265,0.12560239578036517,0.044495913901635285,0.05609402518277248,0.045345091150747724,0.03594778947032384,0.4503733329368389,0.2985655978535417,0.3980546852403817,0.463633962227721,0.06523985772815127,0.04405145308629129
0.11055972908197809,0.13692292097157194,0.0536613986003244,0.0658902073631943,0.05362615312494481,0.0448357469682065,0.46147159484343186,0.3061712941759579,0.4065512051393341,0.47476445783698673,0.07521453289430226,0.05374974389438171
0.12164246816593406,0.14840296638691372,0.06326634394321909,0.07611726820952905,0.06237495081401969,0.05417612859646971,0.4727806183464008,0.313987096395007,0.41549905571300844,0.48608943549528383,0.08559541788364537,0.06388294389799114
0.13293675379685335,0.16000691621139684,0.07328093793568147,0.08674034225982488,0.07156851519544859,0.06393594346897163,0.4842337629162623,0.32196704105155177,0.4248736180837526,0.4975391153436895,0.096319161910399,0.07441365708700752
0.14437087595288683,0.1717164151551229,0.08366873613799042,0.09771733647231223,0.08117733770136544,0.07407505895934649,0.49575805012629937,0.33005985325669274,0.43464362779058147,0.50903717443731,0.10731991274683152,0.08529735713167574
0.15586570618863319,0.18337906275898883,0.09438666166534136,0.10899893022540377,0.09116537021856198,0.0845462007010043,0.5072900444110493,0.3382089466917674,0.44477117478917716,0.5205007467452798,0.11852931672326267,0.09648238738259626
0.1673346976351388,0.194843956400283,0.10538500518784652,0.12052857531769479,0.10149002508848697,0.09529495258713135,0.5188074636107124,0.34635242360835095,0.45521170345188855,0.5318406802725174,0.1298765187280621,0.10790996087072609
0.17868388499989796,0.20597112518658192,0.11660742493053416,0.13224249596796273,0.11210217510724729,0.10625975677068979,0.5301730497008187,0.35442307482825597,0.46591401256773185,0.5430152488072523,0.14128816220765017,0.11951416030737769
0.1898118845668527,0.21663152995574994,0.12799094667334981,0.14406968881516716,0.12294615352560681,0.11737191366441771,0.5412430365686308,0.36234837974353207,0.47682025534239014,0.5539304539284841,0.15268838916649782,0.13122193808421992
0.2006289526019091,0.22670706327594012,0.13946596375115536,0.15593192291845093,0.13395975404898758,0.12855558194082967,0.5518847011731003,0.3700776752284256,0.4878659393982141,0.5644444594232827,0.1639988401671269,0.14295311627327867
0.21108623000617924,0.23609054944559285,0.15095623705372938,0.1677437397571383,0.1450742308374687,0.13972777853221613,0.561976363544866,0.3775639901597957,0.49897992677422087,0.5744275026371054,0.17513865433010944,0.1546203866269344
0.22105580580091194,0.24468574449343683,0.16237889502576683,0.17941245323073604,0.15621429850578694,0.1507983786306431,0.5714073867862552,0.38471092657150624,0.5100844339260948,0.5837618944737978,0.18602446933406838,0.16612931057792485
0.23041287930330231,0.25240733617848876,0.1736444336668796,0.19083814965893345,0.1672981321233368,0.1616701156879532,0.5800781770712837,0.39143002202039334,0.5210950317261875,0.5923420193955933,0.19657042141567635,0.1773783192393433
0.23904499794826173,0.25918094399005315,0.18465671653159588,0.201913687781602,0.17823736721417,0.17223858141576467,0.5879001836456549,0.3976416486212983,0.5319206454635175,0.6000743354231138,0.20668814536965757,0.18825871340463926
0.24685205728841753,0.2649431191477231,0.19531297472936046,0.212524698758796,0.1889370997569959,0.1823922257854719,0.5947958988267605,0.40327501304706737,0.5424635548437703,0.6068773741353697,0.21628677454878642,0.1986546635476185
0.2537463009941135,0.26964134460137945,0.2055038069245351,0.22259277219322823,0.19929588618518188,0.19205811095551317,0.6006988580036805,0.40826815652855225,0.5526193939892988,0.6126817406697587,0.22527294086388744,0.2084568503227261
0.2596523208534093,0.2732340350311908,0.2151131793363979,0.23204675682135897,0.20920574338675219,0.20116522796726846,0.6055536396371836,0.4125679548546099,0.5622771514391225,0.6174301137220675,0.23355077478383657,0.2176112331809487
0.2645070567720809,0.2756905368476144,0.2240194758473382,0.24077482586823404,0.21855214870438908,0.20960577778332426,0.6093158652597253,0.4161301183721022,0.5713191701489284,0.6210772455464704,0.2410219053355596,0.2260207143422867
0.26825979677362044,0.27699112819139515,0.23215316185226642,0.2486769677043664,0.2272204715446995,0.2172837277842687,0.6119521994754504,0.41891919198589644,0.5796433631265359,0.6235899619555301,0.24758546010403307,0.23359130583077392
0.27087217699923616,0.27712701893356595,0.23944786958621717,0.25566507569697405,0.23515669480937929,0.22411481593406374,0.6134403499601917,0.42090855515886516,0.5872012175302753,0.6249471623201974,0.2531380652322844,0.24024087757876508
0.27231818170785244,0.27610035067544797,0.24582349749097737,0.2616629482099814,0.24228758065885872,0.23002655078004583,0.6137690674614699,0.4220804219118859,0.5939119147897112,0.625139819569811,0.2575978505181795,0.2458991574269373
0.27258414367317,0.27392421408388523,0.2512108782241423,0.2666063295098012,0.24853758595882186,0.23495815799130687,0.6129381766343573,0.4224258142280381,0.5997024132546673,0.6241709699363244,0.26094151427857093,0.2505077362147962
0.2716687519208489,0.2706229866885322,0.2555534426197002,0.27044370686226454,0.2538420992865163,0.2388595385966509,0.6109591769142719,0.4219440438023307,0.6045106543978347,0.6220555131085712,0.2631549395562263,0.2540201669751458
0.269583051209832,0.26623231023698785,0.2588071081413584,0.2731362570977541,0.25814742488681675,0.24169133882103833,0.6078552022363581,0.4206427467835676,0.608285555268148,0.6188202256292954,0.26423222700886756,0.25640195828440454
0.26635043470996234,0.2607987710072364,0.2609387041289326,0.2746570922476216,0.26141055617291126,0.24342593599748508,0.603660452376223,0.4185383742405848,0.6109869019517951,0.6145039500269075,0.26417587778182094,0.25763048038607167
0.26200664370879834,0.2543798870075505,0.26192590874616034,0.27499122933992537,0.26359916665740446,0.24404747804238114,0.5984201701811617,0.4156562118002236,0.6125853453064589,0.6091576023882054,0.2629967999912355,0.2576949614319694
0.2565997676116158,0.2470441079764905,0.2617572489807012,0.27413559039942864,0.2646916099523173,0.24355188345549103,0.592190641570158,0.41203037964733036,0.6130624009613174,0.602844172358376,0.2607143087240825,0.2565964874822404
0.25019024394140554,0.23887081538290522,0.26043210064413674,0.27209900244760116,0.2646769197690876,0.24194684131995353,0.5850391955338834,0.40770383252475684,0.612410449317044,0.5956387231409941,0.2573561260381569,0.25434800250534984
0.2428508583388752,0.22992507135443405,0.25796068837197006,0.2689021975026176,0.26355480991857005,0.23925181130228135,0.5770410994756059,0.4027283597333598,0.6106327355458077,0.5876283914980223,0.2529583809620754,0.2509743083780845
0.2346667445624481,0.2202684518617706,0.25436408562362656,0.26457781257935936,0.26133567431103566,0.23549802365236128,0.568227086335403,0.3971645851320015,0.607743369591272,0.5789123877498119,0.24756560949527784,0.24651206488555263
0.22573538448826422,0.2100377734288796,0.2496742146824534,0.2591703896894131,0.25804058695617244,0.2307284792034552,0.5587046194249112,0.39108196713754884,0.6037673261685961,0.569590315898731,0.24123075460802698,0.24100978972118486
0.21616660811017935,0.1993643991770078,0.2439338466557198,0.2527363758410709,0.2537013019630847,0.2249979493721983,0.5486086233606464,0.3845576841841225,0.5987404447644347,0.5597063344241036,0.23401516624140797,0.23452785848673285
0.20602899705967798,0.18837115420499495,0.23719660147461644,0.2453441230393315,0.24836025354029384,0.21837297615860085,0.5380659961840897,0.3776287413926169,0.5927094296369375,0.5493770550046388,0.22598860130732878,0.2271385046922705
0.19539730511749573,0.17717232558927423,0.22952694789425657,0.23707388828589862,0.24207055599573735,0.2109318721460464,0.5271956093616883,0.3703623734513603,0.5857318498157493,0.5387270825532673,0.21722922368852018,0.21892581975619343
0.18439950896383678,0.1658736623838727,0.2210002034936749,0.22801783357918215,0.23489600373677003,0.20276472050129352,0.5161083077848548,0.36284912861074387,0.5778761391020105,0.5278722451796884,0.2078236042385357,0.2099857530052186
0.17315489364161088,0.1545723756204098,0.21170253467582792,0.21828002591429763,0.22691107127016288,0.1939733749744747,0.5049069097699677,0.3551733348043525,0.5692215960683569,0.5169195941903719,0.1978667207817514,0.20042611167438498
0.16177403337840993,0.14335713830809887,0.20173095666759475,0.20797643728306642,0.21820091320210377,0.18467145989909678,0.4936862070583713,0.34741309964896594,0.5598583840589184,0.505967404088557,0.18746195811336608,0.19036656090705356
0.1503587915865075,0.1323080854337463,0.1911933335197755,0.19720290266119728,0.20886136423819748,0.17494714793236055,0.4825329648163753,0.33964031044455756,0.5498875311893221,0.49510517257425213,0.17672110799940133,0.17991857292069663
0.13900232086285924,0.12149681396175176,0.18020837810709295,0.18600996526799743,0.19899893918346453,0.16485174481264722,0.4715259216352553,0.3319206341742954,0.5394209303466887,0.48441362054423576,0.1657643691767018,0.1691227159321511
0.12778906298910236,0.11098638283410879,0.16890565212819125,0.17451535898500253,0.18873083294234325,0.15450069236480202,0.4607357895312525,0.3243135175045415,0.528581339189635,0.47396469209205594,0.1547203473529342,0.15808849207157102
0.11679474893155642,0.10083131297040339,0.15738075421483583,0.16283201693868768,0.17818492051868795,0.14400312342145638,0.4502252539455742,0.3168721867848522,0.5174978819461507,0.4638215545080302,0.14368013752805733,0.1469276804991546
0.10608639884122255,0.09107758726781562,0.1456678992938063,0.15106428705664257,0.16744232774610648,0.1334596652712333,0.44004897374439284,0.30964364804797806,0.5062099187263163,0.4540385982792461,0.132638977392812,0.13574294469096165
0.09572232205378367,0.08176265060111831,0.13387655807100285,0.1393079320675723,0.15654274362817971,0.12296243965874744,0.4302535812188468,0.30266868700986377,0.49479674565831877,0.4446614370895606,0.12170688797787924,0.12462783243891357
0.08575211708960488,0.07291540982267772,0.12210960827151,0.12765012950129728,0.14559387635521656,0.11259506278460572,0.42087768208504045,0.2959818690696483,0.48336531900957735,0.43572690781960005,0.11098915172842785,0.11366677585079417
0.07621667165373301,0.06455623376245362,0.11046009935013676,0.11616947168875305,0.1346946472651147,0.10243264530540644,0.4119518554840434,0.289611539309665,0.4720128214270064,0.4272630705467608,0.10057670236033775,0.10293509135024853
0.06714816263589675,0.05669695322799906,0.09901125249141803,0.10493596576199017,0.1239343273563501,0.09254179233373959,0.40349865398189116,0.2835798224954413,0.4608266619370155,0.41928920854520885,0.09054612486020094,0.09249897967678428
0.05857005611050678,0.049340861004460036,0.0878364606096127,0.09401103365417438,0.11339253728797863,0.08298060343818701,0.39553260356958503,0.2779026230756988,0.44988447594550973,0.4118158282858795,0.08095965548532078,0.08241552588577025
0.05049710733665572,0.04248271185457631,0.07699928834870569,0.08344751209958678,0.10313924737963522,0.07379867264332246,0.38806020366309213,0.2725896251823534,0.43925412523788954,0.404844659436478,0.07186518176371218,0.0727326993484376
0.04293536075811774,0.03610872251868076,0.06655347208240653,0.07328965263362364,0.09323477761153388,0.06503708842971108,0.3810799271033449,0.26764429263051526,0.42899369797905035,0.3983686548614792,0.06329624249410189,0.06348935375187892
0.035882150003349246,0.030196571714699534,0.05654291991414998,0.06357312159279623,0.08372979762446835,0.05672843373391023,0.3745822201562417,0.26306386891848865,0.41915150871338325,0.3923719906221276,0.055272027745927904,0.054715227099049066
0.029326097885488574,0.024715400138152165,0.04700171167709568,0.05432500011473091,0.0746653267198114,0.04889678594846845,0.3685495025126468,0.2588393772277723,0.4097660983647745,0.3868300659764371,0.04779737885934018,0.04643094170876464
0.02324711640235553,0.019720865907709044,0.037954098934128724,0.045563784138169694,0.06607273385951483,0.041557716921926516,0.36295616728838964,0.2549556204230588,0.4008662342366058,0.3817101382578431,0.040862788445200186,0.03864800421570372
0.017616406736452282,0.015125374220110531,0.029414504977858722,0.03729938440296923,0.05797373766610998,0.034718292958816885,0.3579389220033817,0.25139118105223524,0.3924709100117541,0.3770659111104889,0.0344444003850806,0.031368805570406916
0.012463407228664252,0.010598366490768122,0.02138752483062079,0.029533126450101595,0.05038040642270721,0.028377074819663395,0.3534183137611726,0.24817289864795183,0.3845893457525913,0.37274480315149133,0.028504009831266483,0.024586621039275995
0.007720794765459015,0.005835069509963466,0.013867925244475034,0.02225775062165407,0.04329515807299657,0.022524117720982006,0.34901376416554486,0.24523935886811937,0.37722098790098546,0.3684607819377496,0.02298906320675371,0.018285610204575108
0.0031188663076555257,0.0005583708466312498,0.006840644701206423,0.015457412060829033,0.03671076022124678,0.01714097133528042,0.3443847055807358,0.24239436413320217,0.3703555092782991,0.3639446969493444,0.017832658205250235,0.012440816964430284
-0.0016018655087705943,-0.005481181151641361,0.000280793412325335,0.009107680711944009,0.030610330132306404,0.01220067979105765,0.33923093912108726,0.2394505693113056,0.3639728090853904,0.35894427958953856,0.012953543791175522,0.0070181695328288074
-0.006688078626659183,-0.01250537735861407,-0.005846346680932757,0.00318285612998038,0.024967334731602973,0.007678531493888213,0.3332926346510458,0.2362301590689206,0.3580430129026135,0.35322414318477635,0.008256120199660672,0.001974480439620593
-0.012373641567666918,-0.02070834786939492,-0.01158532190760813,-0.0022466866268180535,0.019745590605143023,0.003639034077165439,0.3263503307851608,0.23256484787092405,0.3525264726898162,0.3465657829846829,0.0036304389365481044,-0.0026315141435687504
-0.018879613432265796,-0.030256562000438296,-0.016990506867014997,-0.007370608074869644,0.014899263999512751,-0.00012308706739004496,0.3182249348880872,0.22829587998057843,0.3473737667863432,0.3387675761620659,-0.0010477972216080024,-0.006941537928042608
-0.026414243899744158,-0.04128882828954603,-0.02212381850575543,-0.012462347165086832,0.010372870821877538,-0.0038810228853045792,0.3087777230745835,0.2232740294595324,0.34252569991103404,0.32964478181291423,-0.005917234227541639,-0.011300714395189074
-0.03517297322820626,-0.05391629449586744,-0.026886092848981708,-0.017779217910888705,0.006110807648904289,-0.007891567785352476,0.29791034020951307,0.21735960016782022,0.3379768320585651,0.31902954095639857,-0.011096931233517557,-0.016021284975477362
-0.045338432254572375,-0.06822244759989891,-0.03155967265195456,-0.023562409388200915,0.0022174764080665505,-0.01239511963955638,0.2855647999078429,0.21042242576386208,0.33374375706655207,0.3067708765348711,-0.01664468997361396,-0.021382547536991522
-0.057080442394578955,-0.08426311380348427,-0.03660724987058319,-0.030036985735455147,-0.0016394446370237414,-0.017615679783186948,0.27172348453464445,0.20234186970446397,0.32937598406511637,0.2927346934138657,-0.023171718631647412,-0.027630856385430027
-0.07055601564277827,-0.10214341177503312,-0.042415907411488755,-0.037411886153590236,-0.0059103795761410675,-0.02376085301476301,0.25640914520509356,0.19300682524481755,0.3244477024024207,0.27679570778958534,-0.031222129061457653,-0.034979622264105975
-0.08590935457253882,-0.12124382631750534,-0.04929711913200459,-0.04587992490605096,-0.010971940328866642,-0.031021847596051685,0.2396849017844701,0.18231571543850053,0.31860687978911434,0.2588820168735164,-0.04114873006237814,-0.04360931235394705
-0.10333960746912278,-0.13987702038500618,-0.057486749840175946,-0.05561779131878901,-0.017126926644588928,-0.039573475252068016,0.2215562422336001,0.17012530356956154,0.3115752622983325,0.24012874146762195,-0.05311302737923583,-0.05366745027349571
-0.12223965001368042,-0.15637870202015766,-0.06714505529475995,-0.06678604978026226,-0.02460432610250306,-0.04957415117107553,0.2023433255656351,0.15687220496841175,0.3031483743656965,0.22201519726991925,-0.06708522370235133,-0.06526861607890863
-0.1411637479660861,-0.1691494356263134,-0.07835668220522607,-0.07952913974143533,-0.033559314111611,-0.061165894004585546,0.18410919734460154,0.14360957598088578,0.29319551878931427,0.20600499805524614,-0.08284421866753869,-0.07849444626395762
-0.15866348463843777,-0.1766546419675582,-0.09113066823175539,-0.09397537571577905,-0.04407325391072182,-0.07447432586735786,0.16894354383005147,0.13138972739303395,0.2816597767297796,0.19354605567526134,-0.09997760885610582,-0.09339363376002859
-0.17330130695373785,-0.17742459816870831,-0.10540044198524139,-0.11023694727927104,-0.056153696568451365,-0.08960867233740019,0.15874555674843138,0.12125357804123044,0.2685580077101727,0.18607058005844437,-0.11788168779485367,-0.10998192793612231
-0.18365052544709592,-0.17005443771829404,-0.12102382304349467,-0.12848602588094832,-0.06973438099234605,-0.1067314591502358,0.15522393329079348,0.11423065481736008,0.25398084960891343,0.18499507921205588,-0.13576144595610767,-0.1282866500732348
-0.1882953615103629,-0.15320426768954776,-0.13778365880466198,-0.1480303991330618,-0.08467559248347363,-0.12503455693342286,0.15989678616988595,0.11133929652941768,0.23809243782163544,0.19172043626670157,-0.15263057194956445,-0.1472982580779732
-0.18583107272343544,-0.12559947970606863,-0.15539754296216798,-0.16737986621821793,-0.1007651139156324,-0.14304123269876687,0.17409140501820036,0.11358719470608247,0.2211296602494242,0.20763211386135172,-0.16731145568404404,-0.16541560489399756
-0.17486381967028472,-0.08603041949251988,-0.1735036823592994,-0.18506367580458052,-0.11772587075509831,-0.15930044073297842,0.19894450993959453,0.12197081890788578,0.20334406786163933,0.23409993695252276,-0.17882380341846255,-0.18108464897631804
-0.15401063922193575,-0.033352299970612474,-0.1905329191820317,-0.19963918172328046,-0.13520478238708575,-0.17238861304124234,0.2354023056067635,0.13747523619851482,0.18550118148487868,0.27247805930187097,-0.18571556491569327,-0.19279896738023108
-0.12189949281238742,0.03351475747180423,-0.2046518842179771,-0.2096918179076584,-0.15163985974717634,-0.18090960387714997,0.2842204016729558,0.1610740709769154,0.16943126098602493,0.32410508050210646,-0.18553300118159038,-0.19909974638275396
-0.07716922378397621,0.1159534262701097,-0.2141556403740404,-0.21383512053592915,-0.16520963552525803,-0.18349473875379102,0.34596388309293835,0.19372954046800941,0.15691898795562537,0.39036120949226494,-0.17619885324796633,-0.19857578976914347
-0.01846953909345935,0.21504456408735395,-0.2174676556840304,-0.21071073752782918,-0.1742220327839788,-0.17880283546385645,0.42100734028257586,0.23639246994411667,0.14962133091652066,0.4726066991860476,-0.15603641977863747,-0.18986352238685583
0.05578295130162765,0.32678559570342663,-0.21313980330347193,-0.19898842854644178,-0.17711436496636584,-0.16552020408367835,0.5095348691246271,0.29019004010926114,0.14906754532885713,0.5691117100790402,-0.12376955707554162,-0.1716469901462301
0.14564341709098222,0.4465765929581697,-0.1998523615096057,-0.1773660649981974,-0.1724533358958253,-0.14236064697323011,0.611540083863005,0.35531105209593317,0.15665917359008652,0.6770812951506728,-0.07852267907873783,-0.14265786002048816
0.24863523919782418,0.5698169564662152,-0.17641401370138826,-0.14456963003287346,-0.15893503977614226,-0.10806545877612653,0.7287188808027429,0.4298753923620831,0.17367004503496652,0.7933189388731612,-0.019820757366406927,-0.10167542004573435
0.3618153596687153,0.6919054156169857,-0.14176184839949235,-0.09935321854359425,-0.13538496119148108,-0.06140342641962353,0.8566277921628616,0.5116606128968664,0.20124627593556027,0.9142265572115057,0.05241067884514936,-0.04752657932095583
0.4818326568049407,0.8082400285746937,-0.09496135924630635,-0.04049903716683138,-0.10075797510638487,-0.0011708291146181968,0.9867346409984377,0.5981805354771803,0.2404062695012366,1.0358044976234928,0.13784554270150726,0.020914131991977065
0.6049279451625089,0.9142181822783425,-0.035206445005934804,0.03337791659526646,-0.054138346865775996,0.07410552902956402,1.111555361928973,0.6866852516676659,0.29204071587867025,1.1536515390596933,0.23575718971012236,0.10545764940638198
0.7269339755521522,1.005236592441725,0.03818059043580223,0.12338530262994975,0.005260267805044447,0.165229571606562,1.224654001138396,0.7741611228207068,0.35691259215184107,1.2629648919634628,0.3450184177403279,0.20523809069777757
0.8432754350393257,1.0766913035534251,0.1258902089631974,0.22689058672123802,0.07809482280039586,0.26934308618028796,1.32064271637506,0.8573307800764287,0.4356571623420351,1.3585401982709437,0.46424694150206847,0.31667093317458905
0.9489689469442083,1.1239776888768167,0.23012974591683877,0.34053538199542904,0.16494470400771039,0.3830625661698065,1.3951817769517456,0.9326531243627012,0.5290649846186116,1.4347715314110614,0.5924884868409219,0.43598908270947645
1.0386230708417026,1.142490450450064,0.34694365242923336,0.46071326838035564,0.26809437118641544,0.5027748739368878,1.4449795637456573,0.9963233263951357,0.6367871371340746,1.4856513963055291,0.7222566594129337,0.5592482120454231
1.1064383025614337,1.127633058973564,0.47057508937639136,0.5835697926053852,0.3841612642874057,0.6246372407860067,1.4677925691984277,1.0442728266770875,0.754574983822938,1.5047763856100396,0.8453322530773928,0.6823267607957355
1.1462070741877508,1.0780098344696483,0.5956147593906542,0.7050024682014198,0.5072955163215672,0.744577266964344,1.4624253973161139,1.0721693354996533,0.8778623305670679,1.4883776968260025,0.9547604971995662,0.8009259354440432
1.1516142113615382,0.9996854831254395,0.7170009068606973,0.8206607755008954,0.6320226093943437,0.8582929216617847,1.428730763669198,1.0755207265295896,1.0020709679917652,1.4404244450733725,1.0448510566506994,0.9105697093442997
1.122145519335157,0.8993557971073073,0.8300193179315277,0.9259461616377833,0.753243374705737,0.9612525430109207,1.3676094953925904,1.0534357311875404,1.1226106714657642,1.3660799030899589,1.1111780318080187,1.00660482272078
1.0628728900473672,0.7832143202959913,0.9303033205044858,1.0160120405475899,0.8662339925503043,1.0486948380870476,1.2810105311856264,1.0096981335422268,1.2348792011012333,1.2704111974712462,1.1505799585547272,1.0842007826680846
0.9789844239539012,0.6569523482866008,1.0138337842372447,1.0857637929673558,0.9666459923171614,1.1156288829081678,1.1725053587736323,0.9482708539356873,1.334262301753776,1.1583893086703965,1.1611598082800076,1.138349863151136
0.8755649806493054,0.5257589283886146,1.0769391205438097,1.129858766435656,1.0505062524899822,1.1568341224349878,1.0493537636669883,0.8729925249843501,1.416133703022429,1.0348890709982488,1.1422849878790209,1.1638671050051792
0.7575961788669398,0.3943208596258826,1.11629528259452,1.1427062752926005,1.1142170006469962,1.1668603705709186,0.918189148553358,0.7875774915790316,1.4758551192496627,0.9046891726233189,1.0945873397529087,1.155460669347482
0.6299563964789786,0.26682269273662357,1.1289257653160445,1.1198717084995025,1.1545558134609917,1.1419175726382436,0.7847496270340979,0.695615810884937,1.5087762495213832,0.772472155571801,1.0199631418087887,1.1121607375430362
0.49742077049640837,0.14694673017342608,1.1122016053913886,1.0647554878501513,1.168675616699313,1.0859478342852036,0.654001970589846,0.6005732523416604,1.5102347776669292,0.6428244157275649,0.9215749278976872,1.0398191127528382
0.3646611970690319,0.03787302610324914,1.0638552409696818,0.983361852730627,1.154104685223864,1.0047208144371524,0.5301416085805231,0.5057912976631855,1.4770767815270878,0.5202362028321579,0.8044991310817752,0.9445514527198053
0.23624633148546378,-0.05772061359257904,0.9853381355618702,0.8814111718073336,1.1087466429911035,0.9037236226459194,0.4165926282453315,0.41448714083788346,1.413460754346131,0.4091016204848048,0.6756292970260168,0.8321139827335804
0.11664158817313267,-0.13765944436140884,0.8839174103440396,0.7643366567336171,1.0329961860052101,0.7881608075456634,0.3160077747027555,0.3297536881285157,1.3254859208253285,0.31331134331247523,0.5413043033449735,0.7079034956305318
0.010209140698281272,-0.2008583659240433,0.7665419997203565,0.6372843621497641,0.9337001422393822,0.6629543568528736,0.23026845095056186,0.2545595580722315,1.2189298123460186,0.23331693046427693,0.4070446291373025,0.5769573517937553
-0.08009020661901736,-0.24814020459353203,0.6394638396561663,0.5051131856830043,0.8178828436684994,0.5327436973663675,0.16048471786579863,0.19116107775696659,1.0992480923794776,0.16887000847204361,0.27755235498575875,0.4439534791530719
-0.1545357885578987,-0.28070584100078266,0.5082378676779882,0.37239486794751003,0.6918631311193698,0.40188569496729165,0.10699529420479728,0.13947607400593176,0.9715745564869206,0.1196218325323834,0.156711162957193,0.3132103731850285
-0.21334423251779294,-0.29985952787826436,0.37772202287351864,0.24341399254439355,0.5612583581635324,0.2744546546191227,0.06936755660316951,0.0991427733475358,0.8407211323194996,0.08495755353317869,0.04758633660255315,0.18868709691289828
-0.2569865662898764,-0.30700889006000837,0.2520772458916302,0.12216798606171127,0.4309843911172579,0.1542423203676666,0.04639753957581039,0.06966571097382862,0.7111778796183043,0.06399621805358735,-0.04757523904311692,0.07398328090668033
-0.28620035573943975,-0.3036649244816077,0.13476747894237076,0.012367118074460658,0.3052556090415479,0.04475787534105819,0.036109935516896174,0.05039695620692042,0.5871129902143629,0.0555907683640417,-0.1273450774606765,-0.027660876716899943
-0.3019897048058877,-0.291442000180217,0.028559665796964628,-0.08257668961341008,0.18758490374213607,-0.050772058250238734,0.03712350977736506,0.04053611249898237,0.4723727880286406,0.05832804242624934,-0.19111309064688836,-0.11346655604384634
-0.305625255502739,-0.2720578582945526,-0.06447624821218736,-0.16109843570302657,0.08078367976948678,-0.13021076603035547,0.04824886406765205,0.03913031743224654,0.37048172907204013,0.07052877389319234,-0.23908758911441902,-0.18284072301285426
-0.2986441879176263,-0.2473336120648933,-0.14296731619150813,-0.22369543915898124,-0.013038145581203829,-0.19398857904807615,0.06688826864694203,0.0450742427190059,0.28428265676631126,0.09024759210912792,-0.2722952818918373,-0.236471235115813
-0.28285022021229644,-0.2191937468330789,-0.20623758968624642,-0.2709371862005019,-0.0924721422700089,-0.24270998211666706,0.09071922745012051,0.057110094201613726,0.21402911320183465,0.11527302210958809,-0.29112696102289665,-0.27515712071566606
-0.26031360862261044,-0.18966612004251146,-0.2540118594563873,-0.30361360989298475,-0.15681136751226948,-0.27715948355577424,0.11770067603649562,0.0738276118524846,0.15928116628692846,0.14312748462137984,-0.2963838144985635,-0.2998855939840569
-0.23337114745854315,-0.16088196123815485,-0.28534126186515857,-0.3227350901479945,-0.2058452405404855,-0.2983119799884919,0.14607298158979784,0.0936640697740938,0.11941448713230124,0.17138980968151374,-0.29079913773578525,-0.31183205490132926
-0.20461719610042198,-0.1346571031019274,-0.3022620619164511,-0.3295324537232644,-0.238516205555407,-0.307332756341361,0.17435794291818027,0.11490427619897722,0.0935727121516381,0.19888893092354784,-0.27686715819024216,-0.3123600892565262
-0.17608114423706847,-0.11127739476266832,-0.30719094767556626,-0.325456974222696,-0.25667229975504824,-0.30557748584437006,0.20135879045421823,0.13572433181754406,0.08066744306159995,0.22484287572611578,-0.2568352328223689,-0.30302146864739127
-0.14867955500561117,-0.09076069688520465,-0.3023646451466771,-0.3121803720963597,-0.2627352179072949,-0.2945922300309547,0.22616018625490975,0.15514566997722215,0.07937824688182427,0.2486351348875453,-0.23270384809735561,-0.285556150480368
-0.12313005743473797,-0.07307063384524595,-0.28983991827282773,-0.29159481464049375,-0.25894685557691266,-0.27611343873799843,0.24812822400167517,0.1729025159127029,0.08815265593492394,0.26981975723594076,-0.20622661998514652,-0.2618922779705994
-0.09997972620380945,-0.058111226630403856,-0.2714935689359342,-0.26581291599750523,-0.24736930912554822,-0.252067950105831,0.2669104290003574,0.18878630443805738,0.10520616784648901,0.2881213496291827,-0.17891029396044084,-0.23414618014192873
-0.0796050816428587,-0.04572689284019221,-0.24902243695678355,-0.23716773715597012,-0.22988487571172847,-0.22457299057823057,0.2824357581812216,0.2026698023253941,0.1285222455450849,0.30343507695492816,-0.15201474500269288,-0.20462237182689924
-0.06221208973259208,-0.03570244668602765,-0.22394340009503616,-0.20814761960577527,-0.2081960532908623,-0.1959361749024236,0.2949146000989555,0.21450710830485775,0.15585231726225174,0.31582666213061006,-0.1265529775961128,-0.17567272195011222
-0.04783616210438604,-0.027763098991227267,-0.19759337404921937,-0.18026386787362253,-0.18382554061523537,-0.16826243054529572,0.30483877493267,0.2243336530646326,0.1847166796946233,0.3255323861034394,-0.10329112572966144,-0.14843743582619087
-0.03634214665449574,-0.021574433867845542,-0.17112922436553896,-0.15415639343298249,-0.15811614602955826,-0.1423245990131637,0.31297586820258694,0.2322661872592709,0.2130363280264839,0.33295907160395005,-0.08274843710776314,-0.12337090918765928
-0.027424153074729465,-0.016741975170402757,-0.14552612894111244,-0.13032502016624462,-0.13222909210285308,-0.1185654317734223,0.31981288322116,0.23850255860075348,0.2399559684705162,0.33868378114633996,-0.06519697964855274,-0.10081600841545982
-0.020605569055947164,-0.012811226760647748,-0.12157773010328068,-0.10912553962917157,-0.10714417308245267,-0.09731017659431532,0.3255068284429258,0.2433217325607212,0.26485749975878753,0.34345108749191233,-0.05066166874227781,-0.08099497948910615
-0.015239221803233394,-0.009272245362548268,-0.09989765052410193,-0.09076964782557449,-0.08366132438296206,-0.0787650597825201,0.33030420245255143,0.24708399872868275,0.2872778953470256,0.34768376360510944,-0.038920538960876445,-0.06400927176511108
-0.010581155797455026,-0.005877148361308201,-0.08091955081450719,-0.07532494280519263,-0.06240068221586665,-0.06301730134654243,0.33442871246522404,0.250230978652184,0.3069091720138587,0.351432955122604,-0.029495014452083013,-0.04983953128179849
-0.006460674402094422,-0.002600997639758837,-0.06489712952429744,-0.06271492466369319,-0.04380258358953266,-0.05003511499671598,0.33808127432664997,0.25314755161325897,0.3235983898608156,0.35484848504889954,-0.021726148789556796,-0.038345600759303974
-0.002769321666045328,0.000630654705290801,-0.05190412314214571,-0.0527189955426717,-0.0281275663092059,-0.03966770814520337,0.3414400125130552,0.25585557807080445,0.3373476523123255,0.3580639125557872,-0.01529588999519028,-0.029266519599574062
0.0006372933097014925,0.003884821563465591,-0.041629886050724124,-0.0449724596296517,-0.015456368977013829,-0.03164528190599502,0.3446602601311851,0.25843043292170514,0.34831410611571806,0.3611965329823452,-0.00997497056160925,-0.02222052388636689
0.0038872240742193944,0.0072210808108246,-0.0333351735353187,-0.038966523158084944,-0.005544085188431337,-0.02557903109490976,0.3478745589183046,0.2609446235320128,0.35680994134122357,0.3643473778349395,-0.0055504021374076,-0.01670504638525155
0.007092186826645568,0.01069157530986108,-0.026650026188446613,-0.03404829440735127,0.0023568566428448616,-0.020961144229594948,0.35119265924219834,0.2634622056606591,0.36330239138197273,0.3676012147872233,-0.001825475527147956,-0.01209671654360897
0.010347560416181246,0.01434101290950248,-0.02124897726622569,-0.029605532858342606,0.008632898845630226,-0.017164803529526065,0.35470152010116995,0.26603878345945514,0.3684137329539966,0.3710265476801372,0.0013802393086388576,-0.007853411991113767
0.013732386342091722,0.018206666445110233,-0.016837212049964773,-0.025586912862292557,0.013608876964007678,-0.01371786702052226,0.3584653091240432,0.2687215094730917,0.37284925945977754,0.37467561652190945,0.004230893253453064,-0.003948479120331774
0.017309368753705954,0.02231837373848015,-0.01315056784616382,-0.02186814451034308,0.017579427323678,-0.010610725292846745,0.36252540257016075,0.2715490846391393,0.37677393598524606,0.3785843974880553,0.0068743580348269405,-0.00027190895694596123
0.02112487445041711,0.02669853759784207,-0.009955533986513299,-0.018325975438683622,0.020808987031959804,-0.0077304836110036424,0.36690038532938535,0.27455175828804784,0.3802944936527533,0.3827726029213779,0.009442226224324043,0.0032820520426223004
0.025208932881682425,0.031362125817860007,-0.00704925182789496,-0.014851419985358648,0.023531793977789355,-0.004974176366048396,0.37158605092209873,0.27775132814314735,0.38354794916460583,0.38724368133196724,0.012049811237539402,0.006807093881983962
0.029575236147022683,0.03631667117963222,-0.0042595147523814434,-0.011349759190267511,0.02595188683172115,-0.0022503895996044522,0.3765554014992025,0.2811611403206472,0.38665578179066684,0.39198481739720137,0.014796147334099688,0.01038484302478293
0.034221138996023165,0.041562271450690844,-0.0014447681672361753,-0.00774054079516495,0.02824310504592692,0.000520738996137053,0.38175864784211755,0.28478608932963634,0.38972393336835554,0.39696772345648623,0.017763989617663047,0.01408486239469522
0.03912765882833271,0.047091589385002575,0.0015058904950863185,-0.00395757924366044,0.030549088854196646,0.0034075200784170765,0.38715759226799246,0.28862261807208367,0.39284280830264834,0.4022045505613648,0.02101981403591918,0.017964651375429543
0.04427194348539502,0.052894093225914804,0.004672711776940729,5.1044318781386794e-05,0.03298327927193783,0.006466712653908661,0.3928270590051067,0.2926587178428375,0.3960872735660776,0.40772303749554173,0.024613817380589258,0.022069645810727366
0.04968844689981255,0.058985953317748564,0.008105294195490692,0.004322982044840719,0.03562891809617618,0.009743524078717002,0.3987844022360888,0.29689026881055247,0.3995166586987324,0.413532154613799,0.028579917287426034,0.026433218004362474
0.055392831368544074,0.0653780384695749,0.011822584242708972,0.00888161938534281,0.03853904790555471,0.013271610058379506,0.4050375292685726,0.3013366908928974,0.40317475580825823,0.4196390925829447,0.032935752236213756,0.03107667672014111
0.06139386078717521,0.07207642069998105,0.01581287638537738,0.013736075089257888,0.041736512060334484,0.017073074647865814,0.41159256282684986,0.3060045113154416,0.40708981956985724,0.42604926238181373,0.03768268155076823,0.03600926718190242
0.06769849663262381,0.07908522114091737,0.02003381306508686,0.018881201203701136,0.04521395470239446,0.02115847025157751,0.41845384105187033,0.3108986454647038,0.41127456722628786,0.43276629530126687,0.042805785398936716,0.0412281710735177
0.07431189796313983,0.08640661003769667,0.024413908566815176,0.024297583073932504,0.04893382075523119,0.0255267976233485,0.4256239175012409,0.31602261051721825,0.4157261785878648,0.4397920429441915,0.048273864792598105,0.04671850653889104
0.08123742141830553,0.09404080674899506,0.028990309573121837,0.02997154233209167,0.052828355923959264,0.03016550586644478,0.433103561149227,0.3213785254395354,0.4204262960324602,0.44712657722550175,0.0540394415876627,0.05246321440305771
0.08847662121903549,0.10198607974685096,0.03382958020995973,0.03593636893254093,0.056906223908382535,0.03505676260940811,0.44089175638675165,0.3269671109882214,0.4253577136824722,0.4547681903721376,0.06003875848407243,0.058489044258175166
0.09602924916757613,0.11023874661666606,0.038943536237170784,0.042203203677016084,0.061250310309026015,0.04022528904321121,0.4489857030213953,0.3327876897098586,0.43055574993167367,0.46271339492306585,0.06621656334743442,0.06480877619646062
0.10389325464750632,0.11879317405720481,0.044342447467315714,0.04877980539445518,0.06587306165428974,0.04568671889641069,0.4573808162773967,0.33883818594104537,0.4360340411611386,0.4709569237292792,0.07267635113376915,0.07142982788493697
0.1120647846237373,0.12764177788059428,0.05003503776567412,0.055672126168449756,0.07078536502625303,0.05144960420926157,0.4660707267956522,0.3451151258083955,0.441801570885762,0.4794917299537975,0.07944666826379203,0.07835778002101727
0.12053818364251226,0.13677502301232475,0.0560284850502446,0.06288431133724502,0.07599656567768372,0.05752073404415389,0.4750472806337158,0.3516136372285392,0.4478655518311502,0.4883089870716661,0.08653028409799876,0.085596376332505
0.12930599383140665,0.14618142349124882,0.06232842129174454,0.07041869949373969,0.08151446703203857,0.06390513448561314,0.4843005392657995,0.35832744990812254,0.4542314259336216,0.4973980888699575,0.09392803047260066,0.0931475235775936
0.1383589548993283,0.1558475424695827,0.06893893251361019,0.07827582248548569,0.0873453306834633,0.07060606864030025,0.4938187795827732,0.3652488953438074,0.46090286434020655,0.50674664944777,0.1016388016995239,0.10101129154486645
0.14768600413651695,0.16575799221290463,0.07586255879199676,0.0864544054146889,0.09349387639679217,0.0776250366370111,0.5035884938921644,0.37236890682227153,0.46788176740864673,0.5163405032162289,0.10965955456640986,0.10918591305329767
0.15727427641454494,0.17589543410015623,0.08310029425577826,0.09495136663820805,0.0999632821075487,0.08496177562667727,0.5135943899181585,0.379677019420209,0.47516826470739626,0.5261637048984857,0.11798530833661482,0.11766778395225073
0.16710910418631642,0.18624057862364168,0.09065158708654787,0.10376181776755612,0.10675518392194486,0.09261425978236541,0.5238193908015985,0.38716137000432943,0.48276071501562035,0.5361985295297178,0.12660914474921087,0.1264514631214801
0.17717401748606812,0.19677218538902827,0.09851433951861716,0.11287906366889902,0.11386967611688159,0.10057870029927743,0.5342446350999857,0.3948086972313585,0.49065570632319677,0.5464254724571296,0.13552220801898482,0.1355296724711298
0.1874507439293687,0.20746706311534593,0.10668490783901699,0.12229460246305648,0.1213053111399487,0.10884954539475082,0.5448494767874785,0.402604341548038,0.49884805583071457,0.5568232493399516,0.14471370483643875,0.14489329694173406
0.1979192087131192,0.21830006963498738,0.11515810238749721,0.13199812552550158,0.1290590996094249,0.1174194803082581,0.5556114852548935,0.4105322451911254,0.5073308099494747,0.5673687961494408,0.15417090436778969,0.15453138450421777
0.20855753461555276,0.22924411189370839,0.12392718755652607,0.14197751748636087,0.1371265103142778,0.12627942730140734,0.5665200975611844,0.4185749521873942,0.5160952443014899,0.578053384274494,0.1638791382549702,0.16443114615989537
0.219344851267813,0.24027014595062732,0.13298388179129114,0.1522188562304144,0.14550147021416335,0.1354185456579416,0.5775752807861749,0.4267136083536339,0.5251308637194851,0.5888742422318979,0.17382180061562771,0.1745779559404718
0.23029004233392178,0.2513471769782259,0.14231835758969869,0.1627064128970958,0.15417636443942712,0.14482423168373962,0.5887336220382431,0.43492796129664996,0.5344254022468964,0.5997864926099369,0.18398034804312502,0.1849553509080418
0.241361179220023,0.26244225926234777,0.15191924150237388,0.17342265188049222,0.16314203629110258,0.15448211870681522,0.599950587375045,0.44320689884707176,0.543964823137872,0.6107450068962386,0.19433429960653995,0.19554503115509078
0.25251246550033385,0.2735204962022006,0.16177361413266095,0.18434823082934412,0.17238778724091308,0.16437607707731736,0.6111826349119744,0.4515516138279988,0.5537333188572721,0.6217056883058166,0.20486123685066548,0.20632685980449395
0.26369915385776044,0.28455154499271795,0.17186701013662278,0.1954620006470458,0.18190137693127006,0.174488214167531,0.6223872148221636,0.45992661148548925,0.5637133110806685,0.6326254717810712,0.21553680379601,0.2172788630095167
0.27487754608389775,0.29554035109637805,0.18218542210884694,0.20674100549164443,0.1916690231752742,0.18479887437187548,0.6335227693364841,0.46829524818172813,0.5738854506943447,0.6434623239917889,0.22633470693879687,0.22837722995381465
0.2860049930790295,0.30644268982991524,0.1927398569505458,0.21816049960521147,0.2016761234263196,0.19528663910690605,0.6445487327435451,0.47662207159011605,0.5842286177952962,0.6541752433351429,0.23722671525096423,0.23959631285143349
0.2970398948521285,0.3172054745599245,0.20350706330183302,0.22972191971036643,0.21193218622609925,0.20592832681131296,0.6554255313896944,0.4848728206952706,0.5947304692720082,0.6647242599356923,0.24818266018016627,0.25090862694680927
0.30794170052085656,0.32777805883054034,0.214450529059464,0.24140898922987733,0.22241942276271978,0.21669899294592226,0.6661145836790184,0.49301442579302535,0.6053985594369837,0.6750704356453832,0.2591704356497715,0.26230831936344357
0.3186709083115643,0.3381122363634374,0.22553419894909532,0.25317413490928825,0.2331020607604093,0.2275746840298909,0.6765783000733424,0.5010150084904305,0.6161921182660682,0.6851758640435475,0.27015599805886414,0.27378481626284323
0.32918906555929106,0.34816224105782956,0.23672247452528622,0.26497099770623667,0.2439447762082182,0.23856251044369903,0.6867800830922295,0.5088438817057519,0.6270667257166187,0.695003670436904,0.28110544067402893,0.2852884918717976
0.3394587687072349,0.357884746974453,0.24798021413873111,0.27675443278641143,0.2549126933139568,0.2496298327367507,0.6966843273122254,0.5164715496646202,0.6379790081338934,0.7045180118740155,0.29202231550694463,0.2967709879195336
0.3494436542545713,0.3672385949367961,0.2592721736505737,0.2884804405191105,0.26597059827581054,0.2607298011863422,0.7062564064581905,0.5238696421443801,0.6488864263962701,0.7136843239278434,0.30287163528333605,0.3081855127784634
0.35910837572497195,0.37618409692213794,0.2705615834408783,0.30010599090912476,0.2770809388801139,0.27181587021971526,0.7154626405597553,0.5310107471718805,0.6597467368927633,0.7224699485850197,0.31359968067589883,0.3194870307230252
0.368418628646198,0.38468379050843127,0.2818116917635644,0.31158921401524287,0.28820599410713177,0.28284269733071465,0.7242703315729291,0.5378685924769022,0.6705185761385982,0.7308434532467076,0.32415504445946103,0.3306320566624282
0.3773411576547001,0.3927026534511685,0.29298620370145395,0.3228894541083473,0.2993084912019513,0.29376639874619015,0.7326477735114587,0.5444180971004438,0.6811616270493128,0.7387744370414557,0.33448872607997365,0.341578597759331
0.3858437596504661,0.40020813601192523,0.30404927873621423,0.33396726247483016,0.31035159520252387,0.30454454097162587,0.7405642755679039,0.5506353899675273,0.6916366407426144,0.7462335129602735,0.34455411628987215,0.3522861477416127
0.3938952967785187,0.4071702939830911,0.3149655207492214,0.34478436780425864,0.32129886584990014,0.31513610600329806,0.7479902572516796,0.556497886310152,0.7019055262481417,0.753192234346451,0.3543069339260318,0.3627156634965783
0.4014656854379931,0.4135616760610754,0.3256999864874351,0.35530370126097105,0.3321142940706342,0.32550152078176925,0.754897167839427,0.5619842229629934,0.7119312745537473,0.7596231571337294,0.36370527943737996,0.3728295848877218
0.40852589113893,0.4193572711425327,0.3362181895250103,0.3654894082163451,0.3427623190487485,0.335602670974669,0.761257448681764,0.5670742280849881,0.721677923062908,0.7654998689706891,0.3727096599331751,0.3825918440279918
0.4150479285000587,0.4245345083016571,0.34648610026500404,0.37530684825385197,0.353207828233087,0.3454029009826322,0.7670445331870476,0.5717489211462885,0.7311105555794141,0.7707969892332966,0.3812829891937976,0.39196786528378774
0.4210048612487968,0.4290732567901826,0.3564701459393748,0.3847225951690562,0.36341615733731575,0.35486701393929826,0.7722328468213724,0.5759905129282636,0.7401953023073684,0.7754901690249052,0.3893905876707504,0.4009245652749586
0.4263708022212516,0.43295582603738286,0.3661372106089841,0.39370443696961616,0.3733530903399236,0.3639612717113116,0.7767978071085719,0.5797824055234986,0.7488993398511867,0.7795560911762547,0.39700018248665764,0.4094303528748037
0.43112091336221914,0.4361669656500708,0.37545463516359456,0.4022213758752834,0.3829848594842208,0.37265339489832155,0.7807158236302185,0.5831091923357952,0.7571908912155978,0.7829724702454707,0.4040819074352662,0.4174551292100726
0.4352314057251837,0.4386938654125996,0.38439021732187045,0.41024362831790306,0.39227814527834,0.3809125628329816,0.7839642980256221,0.5859566580801712,0.7650392258056424,0.7857180525180657,0.410608302981444,0.4249702876609645
0.43867953947231947,0.4405261552868622,0.3929122116313798,0.4177426249414144,0.40120007649523687,0.3887094135809519,0.7865216239918318,0.5883117787828611,0.7724146594266765,0.7877726160069386,0.4165543162611828,0.4319487138611297
0.44144362387448893,0.44165590541229055,0.4009893294685907,0.42469101060184994,0.4097182301726881,0.3960160439408958,0.7883671872836355,0.5901627217813152,0.7792885542843665,0.7891169704523744,0.4218973010815946,0.4383647856976675
0.4435030173112437,0.4420776261058569,0.40859073903887394,0.43106264436733527,0.4178006316132932,0.40280600944448236,0.7894813657135585,0.591498845724201,0.7856333189846925,0.7897329573220445,0.4266170179209143,0.4441943733111277
0.44483812727082395,0.44178826786207265,0.4156860653765024,0.43683259951809006,0.42541575438447343,0.40905432435638506,0.7897945513721607,0.5923107005714012,0.7914224085339479,0.7895572332598764,0.43069563392849836,0.44941483909551033
0.44542726052719644,0.4407872213529898,0.42224539034465086,0.4419771635464273,0.4325325203184728,0.4147374616742825,0.7892323680126605,0.5925900275940155,0.7966303243387383,0.7885072664658522,0.43411772292482587,0.45400503769826533
0.445161158084775,0.43907631742819914,0.42823925263539603,0.4464738381567536,0.43912029951235654,0.4198333531288584,0.7878316170760762,0.5923297593743598,0.8012326142059825,0.7866202870441535,0.4368702654014972,0.4579453160202929
0.4440231826463395,0.43665982711483137,0.4336386477697163,0.4503013392655691,0.4451489103280129,0.42432138918380075,0.7856304818221576,0.5915146793489139,0.8052058723429123,0.7839364956895195,0.43894264852123527,0.46121751321594356
0.44205406663895336,0.43354446161755705,0.4384150280974927,0.4534395970014674,0.4505886193921523,0.42818241903580323,0.7826667044623503,0.5900850154230269,0.8085277393570722,0.7804955928014108,0.440326666117885,0.46380496069301724
0.4392940117753756,0.4297393723185868,0.4425403027975078,0.45586975570513577,0.4554101415963065,0.4313987506145634,0.7789775861597951,0.5880577659186811,0.8111769022563193,0.7763367784840078,0.44101651869641334,0.46569248211276454
0.43578268905406087,0.42522562418535154,0.44598683787744603,0.45757417392935495,0.45958464009683064,0.4339541505827847,0.7745999870293276,0.5854648794163625,0.8131330944488246,0.7714987525462123,0.44100881343290854,0.46686639338988634
0.4315592387591595,0.4199915016085834,0.4487061655871292,0.4585364244389996,0.4630837263149011,0.43583384433617495,0.769570326137479,0.5823377729230583,0.8143770957430707,0.7660197145016465,0.4403025641745823,0.4673145026925331
0.4266622704605166,0.41408251352123204,0.4506363837739414,0.4587115110144334,0.46585749442229624,0.43702451600344694,0.7639245815024754,0.5787073318722572,0.8148904005546933,0.759937363568653,0.438899191439767,0.46702611044230563
0.4211298630136732,0.4075437152087799,0.4517932940650423,0.4579979962251836,0.467846453556086,0.43751430844631806,0.7576982900942383,0.5746039101239496,0.8145759893982707,0.7532888986702959,0.4368025224179179,0.46597358324880683
0.41499956455986514,0.40041925255774674,0.4521969538039186,0.456426643823949,0.4690655874270346,0.43729282325951147,0.7509265478343845,0.5700573299646274,0.8133957628804175,0.7461110184343589,0.43401879096961177,0.46406774058900463
0.40830839252602413,0.3927523620556892,0.4518678208558529,0.45403972587774893,0.4695334211509119,0.4363014190987104,0.7436440095962255,0.5650968821072837,0.8113907571197801,0.738439921193347,0.43055663762654756,0.4613353572248863
0.4010928336247775,0.3845853707912015,0.45082675360792457,0.45087884482945384,0.4692689151748432,0.4344861193606452,0.7358848892047688,0.5597513256914136,0.8086014291239869,0.730311304984486,0.4264173854625386,0.45781996444062867
0.39338884385444745,0.37595969645391364,0.4490950109690103,0.4469849334977847,0.4682914652773085,0.43188753739555064,0.7276829594367162,0.5540488882830131,0.8050676567896489,0.7217603675497221,0.42156599564470987,0.45356438989789644
0.38523184849905145,0.3669158473344936,0.44669425236978183,0.4423982550773139,0.46662090256814287,0.4285465113825517,0.719071552020466,0.5480172658745801,0.8008287389023584,0.7128218063357221,0.4160371590333992,0.4486107576358417
0.3766567421283031,0.35749342232464587,0.44364653776270907,0.4371584031384649,0.464277493488536,0.4245032061967108,0.7100835576361104,0.5416836228851136,0.79592339513669,0.7035298184938734,0.4098765727915167,0.4430004880711038
0.36769788859761104,0.347731110917112,0.43997432762205757,0.4313043016275122,0.4612819398110331,0.41979711340902853,0.7007514259154374,0.5350745921601147,0.7903897660562009,0.6939181008802846,0.40312901991485633,0.4367742979978101
0.35838912104807913,0.3376666932056709,0.4357004829438897,0.4248742048665815,0.45765537863953365,0.4144670512864425,0.6911071654419301,0.5282162749715853,0.7842654131134292,0.6840198500557846,0.3958383692320959,0.4299722005875747
0.34876374190650666,0.32733703988513746,0.4308482652460645,0.41790569755364926,0.45341938240929264,0.4085511647918279,0.6811823437507671,0.5211342410180294,0.777587318649896,0.6738677622859228,0.3880475754047975,0.4226335053895002
0.33885452288538875,0.31677811225136476,0.4254413365682375,0.41043569476254343,0.4485959588869195,0.40208692558399767,0.6710080873288219,0.513853528424452,0.7703918858961043,0.6634940335409697,0.3797986789274071,0.4147968183301757
0.3286937049829153,0.3060249622012419,0.41950375947186114,0.4025004419429424,0.44320755117037886,0.39511113201770254,0.6606150816146632,0.5063986437423597,0.7627149389715386,0.6529303594959162,0.371132806127255,0.40650004171367826
0.3183129984829722,0.29511173223269543,0.4130599970401837,0.3941355149203762,0.4372770376889904,0.38765990914363013,0.650033570998555,0.49879356194976093,0.7545917228846661,0.6422079355304737,0.3620901691645551,0.3977803742215724
0.30774358295514026,0.28407165544468854,0.40613491287825093,0.3853758198962256,0.4308277322034285,0.379768708708406,0.6392933588224565,0.4910617264511653,0.7460569035329356,0.6313574567290748,0.3527100660324055,0.38867431091291027
0.2970161072546961,0.2729370555372219,0.3987537711129042,0.3762555934477231,0.42388338380572244,0.3714723091545934,0.6284238073800223,0.4832260490775838,0.7371445677027777,0.6204091178808725,0.3430308805567881,0.379217643224231
0.2861606895226114,0.2617393468113326,0.3909422363927826,0.3668084025279511,0.4164681769192568,0.3628048156206927,0.6174538379166019,0.4753089100865293,0.7278882230696059,0.6093926134797403,0.33309008239656923,0.3694454589695619
0.27520691718555323,0.25050903416909504,0.38272637388832104,0.35706714446584414,0.40860673129877045,0.3537996599411423,0.6064119306292406,0.4673321581620157,0.718320798197815,0.5983371377242723,0.3229242270434993,0.35939214234041755
0.26418384695588465,0.23927571311362034,0.37413264929175116,0.3470640469661872,0.40032410203035823,0.3444896006463178,0.5953261246666777,0.4593171104145587,0.7084746425407822,0.5872713845177843,0.3125689558222121,0.3490913739057994
0.25312000483166325,0.2280680697490569,0.3651879288171012,0.33683066810961676,0.39164577953146873,0.33490672296253265,0.5842240181293489,0.4512845523811755,0.6983815264408662,0.5762235474683112,0.30205899589022606,0.33857613061219755
0.2420433860966427,0.21691388078058974,0.35591947920019606,0.32639789635261995,0.38259768955090623,0.3250824388120375,0.5731327680693848,0.4432547380253846,0.6880726411294085,0.5652213198886095,0.29142816023794327,0.3278786857835885
0.2309814553202717,0.20584001351444134,0.34635496769865703,0.3157959505275351,0.3732061931688295,0.3150474868130207,0.562079090490611,0.43524738973720606,0.6775785987267321,0.5542918947961565,0.2807093476886498,0.3170306091214368
0.21996114635769431,0.19487242585787054,0.3365224620919025,0.3050543798425518,0.3634980867967529,0.30483193227960825,0.5510892603485483,0.4272816983331615,0.6669294322421422,0.5434619649131496,0.26993454289851637,0.30606276670469446
0.2090088623497508,0.1840361663191734,0.3264504306811467,0.2942020638817107,0.3535006021775451,0.29446516722186356,0.5401891115504129,0.419376323056274,0.6561545955739261,0.5327577226665072,0.25913481635659685,0.29500532098980087
0.1981504757229756,0.17335537400768333,0.31616774228940103,0.2832672126049031,0.3432414063854299,0.2839759103457877,0.5294040369551163,0.411549391576068,0.6452829635093531,0.5222048601878686,0.24834032438482972,0.28388773081068297
0.18741132818959944,0.16285327863377017,0.30570366626147316,0.2722773663478721,0.332748601825986,0.27339220705331924,0.518758988373265,0.4038184999885696,0.6343428317246744,0.5118285693135932,0.23758030913803735,0.27273875137875514
0.17681621599039193,0.15255223931488263,0.2950879294738599,0.2612594234133273,0.3220508255365423,0.26274145613263006,0.5082784829312643,0.39620072953595453,0.6233619234920703,0.5016534887607221,0.22688308274165325,0.26158641259934334
0.16638912802346636,0.14247443320313458,0.2843517279964005,0.25024012968552223,0.31117901130847153,0.2520508833873076,0.49798671600469824,0.3887129433028962,0.6123675086969069,0.49170276674483504,0.21627574580982067,0.25045763428859896
0.15615327679331348,0.13264177410041061,0.2735276075298635,0.23924602076555196,0.300166181432193,0.2413474856608741,0.4879075478713879,0.38137175115174893,0.6013863897717784,0.48199817176379867,0.20578422071210167,0.2393782716487755
0.14613133555009905,0.12307528886683264,0.26264854728865034,0.22830297859744375,0.2890458509949885,0.230657601938562,0.4780644014437804,0.37419324104709,0.5904447939195955,0.472560941450734,0.19543350647138696,0.22837346371124884
0.136345446829684,0.11379509496355932,0.2517479270089584,0.2174362155010756,0.27785197041549387,0.22000689790154132,0.4684802585860184,0.3671929693799988,0.5795683692322516,0.46341181314348184,0.18524768794345128,0.2174676458848818
0.12681722245362467,0.10482040045278683,0.24085952694878224,0.2066702741721771,0.26661892544370036,0.2094203659269201,0.4591776601139393,0.3603859609680562,0.5687821846906219,0.4545710238846043,0.17524993581695295,0.2066845499560253
0.11756774352917312,0.09616950399774775,0.23001752788791255,0.1960290276823281,0.25538153716095413,0.19892232508774332,0.45017870579507596,0.3537867090553444,0.5581107301645636,0.44605831042138366,0.1654625066134353,0.19604720408851717
0.10861756044927662,0.08786096436260583,0.21925651112793706,0.18553567947896074,0.24417506197995634,0.18853642115299357,0.44150505434865633,0.347409175312447,0.5475779164129156,0.4378929092058236,0.15590674268732432,0.18557793282368343
0.09998669289257754,0.07990359890955405,0.20861145849223967,0.17521276338535716,0.23303519164476283,0.17828562658759176,0.43317792344560363,0.34126678983644926,0.5372070750834995,0.43009355639464786,0.14660307222593114,0.17529835708033664
0.09169462982341405,0.07229157896392628,0.1981177523260014,0.1650821436006507,0.2219980532307846,0.16819224055239537,0.4252180897085365,0.3353724511509377,0.5270209587131184,0.4226784878493008,0.13757100924945023,0.1652293941547776
0.08376032949181951,0.06501846750306274,0.18781117549619897,0.15516501469982683,0.2111002091447875,0.15827788890419983,0.41764180031615705,0.3297381969860595,0.5170417407275576,0.41566509056242973,0.12882915361096064,0.1553912577207942
0.076202219433523,0.058077730541141806,0.17772791139160674,0.14548190163372035,0.20037865712489217,0.14856352419573807,0.41043606765590246,0.32436557978065794,0.5072910154415845,0.40905003401894297,0.12039519099642493,0.1458034578296621
0.06903456580876541,0.05146273712917961,0.16790454392279472,0.13605265972901853,0.18987083024057438,0.13906942567568095,0.403589191157302,0.3192474501662373,0.4977897980589484,0.40281763427605777,0.1122858929246899,0.13648480091014442
0.062245161959710964,0.045166759355030686,0.1583780575221301,0.12689647468825913,0.17961459689266493,0.1298151992886361,0.3970915293479059,0.3143768910479998,0.48855852467238114,0.396956279015057,0.10451712392287069,0.1274533897684916
0.05582121774670158,0.03918297234338743,0.1491789828845372,0.11803186258983099,0.16964826081334933,0.12081977767514968,0.39093349766450597,0.3097470206829701,0.4796170522635955,0.3914544461667627,0.09710518946919561,0.11872662358844172
0.0497515744094231,0.03350445425578042,0.14028644345362176,0.10947666988797443,0.15999558752369117,0.11210142017170448,0.3851055684531358,0.30535099267999527,0.4709846587032873,0.38630070391153737,0.09005019258841276,0.11032119793122025
0.04402517130879918,0.028124186290578244,0.13169598054075757,0.10124807341278029,0.1506329627050206,0.10367771281072125,0.3795982709690715,0.3011819959997445,0.46268004275113445,0.38148371067928316,0.08334402634494359,0.10225310473554036
0.03863104592699039,0.023035052682987663,0.12340949503995567,0.0933625803701907,0.14156146405996517,0.0955655683205585,0.3744021913768305,0.29723325495470926,0.4547213240557957,0.37699221514944214,0.07697850019079178,0.09453763231760227
0.033558333867394916,0.01822984070505328,0.11542835579719656,0.08583602834199887,0.1327842775625142,0.08778122612551181,0.3695079727501723,0.2934980292092035,0.44712604315491333,0.3728150562509962,0.07094533996554349,0.08718825707565614
0.028796268854647755,0.013701240665658088,0.10775339961042948,0.07867782366059008,0.12430402807786439,0.08034025234581486,0.36490631507209825,0.28996961377936326,0.43991065458765855,0.36894116316246733,0.06523618789636759,0.08020223817970036
0.02433418273462139,0.009441845910522814,0.10038493122957277,0.0718765088329458,0.11612277936241817,0.07325662408084224,0.36058797523485153,0.28664133903314676,0.4330716006773487,0.3653595553119172,0.05984260259801502,0.07356788564952257
0.020161505474425696,0.005444152822206512,0.09332272335651415,0.06542102861820812,0.10824203406378521,0.06652929917663485,0.35654376703991747,0.28350657069033486,0.42659495161627065,0.3620593423769475,0.05475605907281943,0.06727386826765229
0.01626776516240769,0.0017005608201061586,0.08656601664511027,0.0593007039491042,0.10066273372078115,0.0601477933513148,0.3527645611980231,0.2805587098225305,0.42046999243654637,0.3590297242846997,0.04996794871069692,0.061308957027830686
0.012642588008151639,-0.0017966276395430386,0.0801135197011869,0.05350498514949337,0.09338525876342879,0.05410184795902006,0.34924128532913734,0.2777911928531589,0.4146861131385293,0.35625999121185514,0.045469579289146037,0.055662025135011166
0.009275698342478995,-0.005055207063668115,0.07396340908253907,0.04802345193436683,0.08640942851295705,0.04838130792531092,0.345964923962471,0.2751974915574674,0.4092328086908036,0.3537395235846353,0.04125217497324771,0.05032204800535926
0.006156918617449139,-0.008083068922357477,0.06811332929893092,0.04284581340984808,0.07973450118180192,0.04297612174716995,0.342926518536477,0.2727711130625262,0.4040996790301846,0.35145779207880146,0.037306876315665746,0.04527810326625252
0.003276169406357326,-0.01088820164886227,0.06256039281209505,0.03796190807319167,0.07335917387360495,0.03787634149300062,0.34011716739884956,0.27050559984722694,0.39927642906171856,0.34940435761965444,0.033624740256645524,0.04051937075627982
0.0006234694037374304,-0.01347869063959498,0.05730118003573406,0.0333617038127854,0.06728158258321525,0.03307212280262951,0.3375280258065255,0.2683945297422842,0.39475286865868287,0.3475688713820354,0.030196740124015714,0.03603513252524306
-0.0018110645746399969,-0.015862718254129993,0.0523317393355191,0.02903529790814808,0.0614993021966882,0.02855372488730499,0.335150305925683,0.2664315159302346,0.390518912662586,0.3459410747903251,0.02701376563318729,0.03181477283415576
-0.004037217591767107,-0.018048563815203863,0.04764758702909082,0.02497291702993105,0.05600934649128571,0.02431151052969702,0.3329752768317427,0.26461020694543713,0.38656458088316775,0.3445107995184443,0.0240666228871535,0.027847778155243457
-0.006064676589398736,-0.020044603608715166,0.043243707386058615,0.021164917239917525,0.050808168135476166,0.020335946083898035,0.3309942645093664,0.26292428667407286,0.38287999809839857,0.3432679674898538,0.021346034376490127,0.02412373717194378
-0.007903030388052432,-0.021859310883724104,0.0391145526280013,0.017601783991022635,0.04589165868893473,0.016617601475422142,0.3291986518524584,0.2613674743541454,0.37945539405448026,0.3422025908775541,0.01884263897935545,0.020632340778906244
-0.009561769687008441,-0.023501255852453055,0.03525404292846647,0.014274132127293305,0.04125514860254298,0.013147150201205594,0.32757987866416466,0.2599335245754806,0.3762811034658454,0.3413047721040858,0.01654699196149042,0.017363382081992784
-0.01105028706430981,-0.024979105690285996,0.0316555664129712,0.011172705883908948,0.036893407218388935,0.009915369329606648,0.32612944165687285,0.25861622727972633,0.373347566015158,0.34056470384152876,0.014449564976217997,0.014306756398276717
-0.01237787697676239,-0.026301624535769386,0.02831197915900128,0.008288378887180516,0.03280064276976759,0.006913139500405611,0.324838894452213,0.25740940776035315,0.3706453263533129,0.3399726690115036,0.012540746064443968,0.011452461256044096
-0.013553735759934583,-0.027477673490611015,0.025215605196011993,0.005612154154551037,0.028970502381180072,0.004131444924804724,0.3236998475810565,0.25630692666265364,0.36816503409943596,0.33951904078517037,0.01081083965465646,0.008790596394792533
-0.014586961628157636,-0.028516210619681133,0.02235823650542743,0.0031351640945957333,0.025396072068334226,0.001561373385428065,0.32270396848351707,0.25530267998374273,0.36589744384088424,0.33919428258322903,0.009250066562926108,0.006311363765231861
-0.015486554674525563,-0.02942629095101149,0.019731133020640848,0.0008486705070216947,0.022069876738144704,-0.0008058837636778036,0.3218429815089499,0.25439059907255734,0.3638334151332459,0.3389889480759195,0.0078485639929059,0.004005067529283823
-0.01626141687089507,-0.03021706647579603,0.017325022627014738,-0.0012559354173322084,0.01898388018873217,-0.0029790315970447106,0.32110866791595255,0.25356465062985734,0.3619639125003399,0.3388936811830216,0.006596385535831596,0.0018621140600823538
-0.01692035206788556,-0.030897786148390543,0.015130101161880722,-0.003187133096494755,0.016129485109424482,-0.004966671617782432,0.32049286587236403,0.2528188367082244,0.36028000543421645,0.3388992160738549,0.00548350117052104,-0.0001269880580266093
-0.017472065994879087,-0.03147779588631272,0.013136032414539197,-0.004953272557363069,0.01349753308075561,-0.006777301757578862,0.3199874704552656,0.2521471947120625,0.358772868395157,0.33899637716727904,0.004499797263374735,-0.0019716280294851396
-0.017925166260020726,-0.03196653857024223,0.011331948126260266,-0.006562574435701941,0.011078304574466426,-0.008419316376699406,0.31958443365098005,0.25154379739759797,0.35743378081167376,0.3391760791316935,0.003635076568375719,-0.0036810928475234147
-0.01828816235021804,-0.032373554044020716,0.009706447990282346,-0.008023129976144513,0.008861518953504004,-0.0099010062639878,0.3192757643550725,0.25100275287287943,0.35625412708051013,0.3394293268850376,0.00287905822708928,-0.005264567294159261
-0.01856946563114138,-0.03270847911465166,0.008247599651813733,-0.009342901032191726,0.006836334472022243,-0.0112305586368659,0.3190535283723494,0.2505182045977779,0.3552253965666405,0.33974721559479043,0.0022213777686634403,-0.006731133940198777
-0.01877738934722381,-0.0329810475523004,0.006942938708031407,-0.010529720066212655,0.004991348275381626,-0.012416057141333404,0.31890984841685965,0.2500843313839864,0.3543391836032705,0.34012093067797156,0.0016515871098283993,-0.008089773145235811
-0.01892014862166121,-0.033193494573636434,0.0057794687080815026,-0.01159129014944425,0.003314596400148931,-0.013465481851967791,0.3188369041118937,0.2496953473950206,0.3535871874918367,0.3405417478011396,0.0011591545548970596,-0.00934936305765239
-0.019005860456412088,-0.03332276646133966,0.00474366115307925,-0.012535184961991682,0.0017935537740979548,-0.014386709271924989,0.318826931989984,0.24934550214621803,0.3529612125020067,0.3410010328803935,0.0007334647957648287,-0.010518679614618283
