I,II,III,aVR,aVL,aVF,V1,V2,V3,V4,V5,V6
1.0200344601461973,1.073883501092237,1.1360112063688914,1.1452639993917204,1.1521908969599024,1.1223598347215618,1.161311039197214,1.1292543421427745,1.021818356023397,1.0965564573642375,1.1347905047707194,1.0700868821452576
0.996542565376089,1.0504176624227035,1.1124455220965872,1.12174731970834,1.1284378961976238,1.098903787803245,1.137317680974062,1.1055326176539702,0.9979461496161055,1.0734231994062728,1.111131980972994,1.0466908724178061
0.9343724721112998,0.9883140980591981,1.0500490873031367,1.059488418984621,1.0655722558350864,1.0368118416973775,1.0737883087497444,1.0427421373876133,0.9347720912195248,1.0121955561848583,1.0484969414035628,0.9847793741845193
0.8389391601147832,0.8930087871670688,0.9542849481447535,0.9638806225546472,0.9689492448382726,0.9414372716069495,0.9762976687339855,0.9462943650202695,0.8378187654188098,0.9180646898629733,0.9522967603836673,0.8896706793627435
0.7170741046508013,0.771357677117687,0.8320395192365282,0.8417282620293067,0.8453354460527684,0.8195367293601123,0.8518721130457917,0.8230202064705264,0.7140521072061484,0.797591706860893,0.8293597828562167,0.7680816583388275
0.5766218455634439,0.631235910494202,0.6912230603845989,0.700843019075726,0.7024924854050418,0.6788651068481529,0.7085837933213093,0.6807596607480001,0.5714726591559129,0.6583006453849691,0.6875242364019343,0.6277200761699719
0.4264399872766248,0.4815378250915408,0.5407696765861519,0.5500439254172677,0.5491770319024427,0.5281755360254928,0.5555506607138238,0.5283618199533372,0.4191155714246561,0.5086784754276293,0.5356382312393566,0.4772845925842327
0.2759608543847315,0.331705612307271,0.390144705309805,0.3987357830127736,0.39481431433231934,0.3768297546197056,0.4024187053565613,0.37529528653796806,0.2665836876530727,0.3578780650371981,0.3831505714024206,0.3261065794267792
0.1322028911196402,0.18871300051885254,0.24631048557977725,0.25394335129898843,0.24663057636255906,0.23187366696617043,0.2562604145699414,0.2286945129732997,0.12098882328705149,0.2129627026561801,0.23714394383669635,0.1812662970482936
0.0001862804562077769,0.05756306660498215,0.11427359657952235,0.12068488727076482,0.10973335939416465,0.09832475913426242,0.12216824304532159,0.09363717282541147,-0.012572506546859097,0.07891308510131796,0.1026706186203745,0.047787384294234944
-0.11618912974610822,-0.05786677313200992,-0.00208939167789882,0.002863845016533785,-0.011878114523904068,-0.019905986620444203,0.004080949179870744,-0.025917896431091412,-0.1301469911947114,-0.04036480974617114,-0.016335550363605945,-0.0704070745530523
-0.21414108897893547,-0.15482286451917815,-0.10003043352591427,-0.09672790538206284,-0.11530461885884581,-0.12000971058127953,-0.0952151594940322,-0.12712605473555938,-0.22892230071403846,-0.1420299631719505,-0.11705536727401035,-0.17048863680577908
-0.2920049440849841,-0.2316753155129614,-0.1779300076444403,-0.17641007785017265,-0.19874692259401722,-0.2002796755704763,-0.17408622630879778,-0.20825685944129857,-0.3072270858738527,-0.2243063156285614,-0.19778429431130756,-0.25072350137071053
-0.3492336392580486,-0.28791799619918124,-0.23529711705988157,-0.23561397031973205,-0.2615057902289319,-0.2601112669491709,-0.23205084546162594,-0.2686940653155712,-0.36453097815464497,-0.2864827667354251,-0.2579324517176694,-0.31047250874916527
-0.38639771604300666,-0.32416853879304436,-0.27276928914513116,-0.2748824647294669,-0.3039819817792619,-0.30000199261740307,-0.26978006201450566,-0.3089356245395953,-0.4014445897483867,-0.3289131752788417,-0.2980246177769714,-0.35019114103701765
-0.40518531333582,-0.3421683376391409,-0.2921125756195707,-0.2958700270248925,-0.32767625277683676,-0.3215514830141152,-0.28909737189421625,-0.3305936867085439,-0.4197195135585289,-0.3530163592119911,-0.3197002288147933,-0.3714295219246957
-0.4081363299696876,-0.3444633918782048,-0.29586742824158724,-0.3011020049437028,-0.3350854714585377,-0.32726788550127905,-0.29259102625127487,-0.33620552595152325,-0.4219442601024074,-0.3611992402987833,-0.3254938353964339,-0.37668327872873364
-0.3970502013739851,-0.3328919304106448,-0.28589162088255654,-0.2923537007307361,-0.32795401455705997,-0.3188972296409142,-0.2821757973875885,-0.3275361965165218,-0.40997350873798233,-0.35516004546131535,-0.31717758216117,-0.3676854680921673
-0.3754439803947012,-0.31102885343651704,-0.2657857944218134,-0.27309878226220297,-0.30953486804032343,-0.29983773671484243,-0.26154209146183877,-0.30801467366215757,-0.38742333569451076,-0.3379897623842538,-0.2982136401383915,-0.34775886215550805
-0.3467941367687435,-0.2823377721418638,-0.23899928407236987,-0.24680743204580347,-0.28338048678980077,-0.27356467658640343,-0.2341978966171081,-0.2811610946444139,-0.35782248545527096,-0.31315294096835244,-0.27209777953860736,-0.3203968869958388
-0.3140977374001048,-0.249799832244867,-0.20849666047381768,-0.21647321286623494,-0.2525730758711533,-0.24308117084427833,-0.20315596877615533,-0.2500183404553343,-0.324210001715992,-0.28365918526877426,-0.241848028598799,-0.28862446717162127
-0.2798724463598644,-0.21591371399584933,-0.17675772969232897,-0.18461306778519188,-0.2197245905342317,-0.21091819280249036,-0.17093383164141585,-0.2171520358230223,-0.2891352273848544,-0.25206315349509256,-0.21000467358242209,-0.25499802572269686
-0.2461565248861871,-0.18269563217727317,-0.14577753322065629,-0.15326732014136624,-0.1869767362130751,-0.17913456750040455,-0.13955377669500155,-0.18465054921164234,-0.2546578045824897,-0.2204645580112903,-0.17863025877940553,-0.22160548417028608
-0.21450883138432336,-0.1516793361037412,-0.11706634797813174,-0.1239996735504469,-0.15600096852591147,-0.14931697170272706,-0.11054286319870031,-0.15412499282141812,-0.22234767464198027,-0.19050816533575987,-0.14930958650615117,-0.19006626251698852
-0.18600882142660946,-0.12391610962199638,-0.09164968631066821,-0.0978972119051203,-0.12799849327515778,-0.1225799338995065,-0.08493291819397705,-0.12670922258863404,-0.19328507810885984,-0.1633837961413038,-0.12314971710553489,-0.16153127924678343
-0.16125654775246762,-0.09997477111092136,-0.07006829599075842,-0.07557039937507036,-0.10370026644741982,-0.09956583430613304,-0.06326053650197255,-0.1030598381856348,-0.16806055474111342,-0.13982632525513441,-0.1007799689469059,-0.13668295132502925
-0.140372660268406,-0.0799416734815395,-0.05237816021747531,-0.05715308040697763,-0.08336699421349215,-0.08044490486333834,-0.045567080723504474,-0.08335618302082493,-0.14677494350917653,-0.12011568165887355,-0.0823519184260867,-0.11573519419846347
-0.12299140529693804,-0.06341065544494305,-0.038138695601478166,-0.0422969652550757,-0.06678913292835842,-0.06491242390711051,-0.03138548186287887,-0.06729787002370562,-0.1290302977553605,-0.10407684848855323,-0.06753519240008105,-0.09843267199246766
-0.10836968736825595,-0.04964010151100074,-0.02660205341629593,-0.030259414924670498,-0.05328856415107512,-0.05223938049407553,-0.01995819719715411,-0.054151074960227155,-0.11407082592833617,-0.09107510705038108,-0.05558728847878078,-0.08407214991848659
-0.09596995335888865,-0.03811184505350601,-0.01725062070956306,-0.02049062044958211,-0.04222900626092555,-0.041856822627040435,-0.010765157026685436,-0.043337969529575894,-0.1013623939356474,-0.08046760130504402,-0.04594566249438199,-0.07206439772127617
-0.08534629583993485,-0.028384677037262614,-0.009636239455411607,-0.012540421006013986,-0.03315237576528271,-0.03331424197703796,-0.0033520416752322348,-0.034403832889350776,-0.09045436344533848,-0.07180478390746285,-0.03815656858675258,-0.061962383481908405
-0.07609155427705293,-0.020056398549161858,-0.0033499556525216686,-0.005997168987993298,-0.02563856458894373,-0.02619926219199135,0.0026954127796407976,-0.026932485338333367,-0.08093568573716858,-0.06467469371196537,-0.03180485573932013,-0.0533568884770668
-0.06783731503046075,-0.012763820798182342,0.001977980675877461,-0.00048773000737042894,-0.019305385154758173,-0.020137638896714428,0.007751414506563005,-0.020546288316488255,-0.07243490170261212,-0.05870203368532835,-0.026513967779071633,-0.04587650717904729
-0.06025391135493591,-0.0061827651153898745,0.006678115482008546,0.004322517106180681,-0.01380857038362781,-0.014793259692911589,0.012150115920358442,-0.014906144404962463,-0.06462014184485826,-0.053548170906776646,-0.021945943376553895,-0.03918764725575717
-0.053050423399814944,-2.8062953937629982e-05,0.011041790693545607,0.00872968030516278,-0.008841773694506772,-0.009868144159177788,0.016185613682045394,-0.009711497326085889,-0.05719912627881121,-0.048911136567984015,-0.017801416045873417,-0.03299452957071587
-0.04597467820899457,0.005946444110934053,0.01532114421361412,0.012991354324254899,-0.004136569004401278,-0.005102443850998176,0.020111948698836535,-0.004700331943371151,-0.0499191647310905,-0.04452562597307254,-0.013819614144696244,-0.02703918818305448
-0.03881324972093088,0.01194790438189712,0.019729109920791334,0.017326620680312984,0.0005375492716298679,-0.0002744423007488804,0.024143106124139016,0.00035082573848651925,-0.04256715654003017,-0.040162998538613236,-0.00977836087424793,-0.0211014703475162
-0.03139145876863923,0.01814445603953689,0.024439417669105797,0.021916047672369352,0.005373166220475815,0.004799444982303752,0.028453015357554276,0.005626908573609013,-0.03496959065567956,-0.03563127779362527,-0.005494074279314169,-0.014999036514455687
-0.02357337307969492,0.02466522714235081,0.02958659328803762,0.026901690381633016,0.010524946430973393,0.01026467051200258,0.033175550044878245,0.011274308274935797,-0.026992545639802926,-0.030775151379576635,-0.0008217672482395723,-0.008587360329839623
-0.015261807276232359,0.03160033562674918,0.03526595858251847,0.03238709067148937,0.01610963399390706,0.016228554825300244,0.03840452807810121,0.017400875414223305,-0.018541689665879414,-0.025475971050383864,0.004344952487071271,-0.001759728635246538
-0.006398322874945794,0.03900088930705517,0.041533631332931434,0.03843727718750036,0.022206052502008945,0.02276028648225876,0.0441937115954079,0.024075919422045507,-0.009562280519103579,-0.01965175267241208,0.010073882351153814,0.005552758532133079
0.003036771712910946,0.04687898587550443,0.0484065252951113,0.04507876535740484,0.028855105049959216,0.029890922066049427,0.050556806981177274,0.031330208587793396,-3.9165596384393986e-05,-0.01325717622447483,0.01639422492498444,0.013381187939496934
0.013024421181524637,0.0552077129022454,0.05586235020034405,0.05229955739111785,0.03605977423438535,0.03761338618295321,0.05746746486598289,0.03915597005967536,0.010003218093653739,-0.006283585797834404,0.02329658794597939,0.021718833158431136
0.0235068233305226,0.06392114783533921,0.06383961175536737,0.06004914228073111,0.043785122153862835,0.04588247146236052,0.0648592801265925,0.04750688984471728,0.020500843930671607,0.0012410104037984537,0.030732984307995637,0.03052115456490986
0.03438742906497248,0.07291435800075968,0.07223761164237053,0.06823849580051283,0.051958290408914753,0.05461483855677111,0.07262579188596834,0.05629811280876187,0.031350095682614834,0.009251940064264337,0.03861683206133036,0.03970579933929509
0.045530942395382426,0.0820434006023936,0.08091649796909457,0.07674008050690805,0.06046850010201186,0.06368901614179444,0.08062155314319208,0.06540624267646977,0.042407767505714414,0.017647866754955402,0.046822954412721086,0.04915260146633761
0.056882685227081974,0.09129553141937347,0.08990313520132541,0.08548550667114133,0.06917614150444978,0.07300607005673804,0.08889583666896676,0.07472581764351323,0.053643909417160636,0.026292772630084123,0.05526730748833736,0.05873496235202455
0.06859879559075975,0.10080584356798787,0.09932198824617229,0.09463852769914033,0.07817838966375953,0.08272559022226762,0.09755947203000469,0.08441510893800742,0.06520567591041655,0.03524708999301447,0.06411492630014282,0.06858843288668769
0.08067377306201441,0.11055951681536158,0.10916495981273572,0.10420355399233039,0.08755042756991643,0.09286699560145331,0.10660268001403483,0.09449523082650764,0.07708076195922667,0.04461055701668977,0.07337699239729092,0.07874953180140656
0.09309224088177438,0.12053792799040132,0.11942086974459869,0.11417000560994957,0.09728113729583465,0.10342004341934387,0.11601253049173135,0.10495449156679632,0.08925142384340486,0.054374554201049495,0.08304337710088472,0.08920349792383407
0.10583577892991278,0.13071938769421323,0.13007545501982773,0.12452427862639029,0.10735642980637047,0.1143714988474387,0.1257729424167132,0.11577817556079309,0.10169680690427452,0.06452759070762842,0.09310092229531561,0.0999326050559116
0.11888298367242481,0.1410794204209957,0.1411112938168459,0.13524968875028498,0.11775928408772018,0.12570506667849446,0.1358647023112162,0.12694853053177757,0.11439310358447152,0.0750552645807748,0.10353340420543866,0.11091629510376752
0.13221075484319844,0.15159677695858895,0.15250617569533448,0.14632526118754666,0.12847058700486577,0.13739992482242497,0.14626586103501713,0.1384444923015438,0.1273169455297918,0.08593940895210381,0.11432075592463728,0.12213403552352853
0.14579427781810536,0.16225335202621055,0.1642331239226885,0.15772574721871085,0.13946912179659296,0.149430744395549,0.1569517283502009,0.15024168856060532,0.14044535712169642,0.09715810373641383,0.1254390780652018,0.13356528017793443
0.159605751033766,0.17302823776282028,0.17626200743219383,0.1694228210742018,0.1507307374219055,0.16176914015351068,0.16789448050036537,0.16231271107491746,0.15375240054895478,0.1086865200706279,0.13686140771007899,0.14518664320480928
0.173614329565745,0.18389746007957763,0.18855961229161972,0.18138513299959902,0.16222831173174945,0.17438373479840402,0.17906314281205227,0.17462712775457198,0.167209027061845,0.12049695775326365,0.14855775250550368,0.1569717737162654
0.18778612512855133,0.1948339786598418,0.20108964170321778,0.19357830925563632,0.17393175146901216,0.1872401589787749,0.19042358969474912,0.1871514826537971,0.1807830769721555,0.13255884524443465,0.16049509066099932,0.16889135579870465
0.20208420607563826,0.20580768695917076,0.21381271600372284,0.2059649521182031,0.1858079922685227,0.20030105128961984,0.20193854464088765,0.19984929597095863,0.1944392796531833,0.14483873966584931,0.17263737094937845,0.1809131085128174
0.21646859739940347,0.21678541220532266,0.22668637266435337,0.2185046398783433,0.1978209986570516,0.21352605827238713,0.21356758022584552,0.21268106404855783,0.20813925353973545,0.15730032680081163,0.18494551270674187,0.19300178589358313
0.2308962807311887,0.22773091539825463,0.23966506629080997,0.2311539268422561,0.2099317640533117,0.22687183441497524,0.22526711810794472,0.22560425937323336,0.2218415061281287,0.1699044210942207,0.19737740583247904,0.20511917695027018
0.2453211943412803,0.23860489131012347,0.25270016862327643,0.24386634333129506,0.22209831076795708,0.2402920421517341,0.23699042902845235,0.23857333057576027,0.23550143397618872,0.18260896565257134,0.20988791078926797,0.21722410566643607
0.2596942331389089,0.2493649684852859,0.26573996853641985,0.2565923956819698,0.23427569000358342,0.25373735186346497,0.24868763281158113,0.2515397024310504,0.24907132270325155,0.19536903224395347,0.22242885860307582,0.22927243099992684
0.27396324867224925,0.2599657092402973,0.2787296720393901,0.2692795662459436,0.24641598185472838,0.26715544187741985,0.2603056983644878,0.26445177585815205,0.26250034699016184,0.20813682129805233,0.2349490508631576,0.24121704688287798
0.2880730491284205,0.2703586096639132,0.29161140227582005,0.28187231339003566,0.2584682953078712,0.2804909984673018,0.27178844367727506,0.27725492792025025,0.27573457057927436,0.2208616619061486,0.24739425972205756,0.2530078822217133
0.301965399333486,0.28049209961708804,0.3043241995238257,0.29431207149621946,0.27037876824143275,0.293685715853265,0.28307653582298975,0.2898915118246669,0.288716946274453,0.23349001182111806,0.2597072278956084,0.2645919008971462
0.31557936739291953,0.2903162218106621,0.31681365617790697,0.30653725096162376,0.2820905674257755,0.30667829620191495,0.29412207582515393,0.3023008569228602,0.3013898686952802,0.24596545745743204,0.27182766866293123,0.2759131017641785
0.32889260693640776,0.29982390326801617,0.3290635368922448,0.3185170142257714,0.2935441404549138,0.31942268277503516,0.3049090880182406,0.31443570433697593,0.31373957105913713,0.25822871389115715,0.2837183959287043,0.2869192428921772
0.34185856800366693,0.3089600044346124,0.3410029645986969,0.33021410467640216,0.3047176647604294,0.33189682787653974,0.3153647708787336,0.32627658114802066,0.32571039615413816,0.2702439416039848,0.2953518284618618,0.29759879209257356
0.354401340263407,0.3176570023987345,0.35255606470244544,0.34155152781464415,0.31556768917377503,0.3440256584760933,0.32541538393101704,0.33774962359909383,0.33722841626098177,0.2819827918284567,0.3066522573853575,0.3078899060154181
0.3664499092650504,0.3258522932083859,0.363651900077534,0.3524571216839761,0.3260207739150389,0.3557355813982992,0.33499222713663923,0.34878144690050056,0.3482246994527917,0.2933720072503171,0.3175479386719901,0.31772243426368857
0.37793815643873246,0.33348819187129136,0.37422447106686874,0.362863595814935,0.3360083138537917,0.36695783752653366,0.3440316408943112,0.3593035539226129,0.3586353095951176,0.3043423442090133,0.3279720151488624,0.32703103207891365
0.38880485909530027,0.3405119323548958,0.38421271548221697,0.37270853122511616,0.3454665385090875,0.3776285018029453,0.35247500603990733,0.3692523351958688,0.3684013063459341,0.31482924305597765,0.3378625164973813,0.3357551603411728
0.3989936904263144,0.34687566758636534,0.39356050860420766,0.38193438041917327,0.35433651204946365,0.38768848322845656,0.360268743846466,0.3785690689107732,0.37746874515564105,0.3247728281546268,0.34716235925325795,0.3438390855690965
0.4084532195040469,0.3525364694525862,0.4022166631823318,0.39048846738881876,0.36256413329294,0.39708352486276194,0.36736431602418795,0.3871999209178966,0.385788677267064,0.3341179078803624,0.35581934680650673,0.35123187991986576
0.4171369112814832,0.35745632880016565,0.4101349294349422,0.3983229876128237,0.3701001357070205,0.40576420382432965,0.3737182247204382,0.3950959447278771,0.39331714971545406,0.3428139746205708,0.3637861694014473,0.35788742118921324
0.4250031265923208,0.36160215543543117,0.417273995049253,0.4053950080570167,0.37690008740869135,0.4136859312903997,0.37929201251974454,0.40221308151141816,0.400015205328487,0.350815204774623,0.37102040413670195,0.363764392811422
0.43201512215096977,0.36494577812443135,0.4235974851813404,0.41166646717428607,0.38292439116442223,0.4208089524969859,0.38405226244379825,0.4085121600992897,0.40584888272626485,0.35808045875387423,0.3774845149651984,0.3688262838593261
0.4381410505525524,0.3674639445929354,0.4290739624561419,0.41710417490457746,0.3881382843901655,0.4270983467388748,0.38797059795145405,0.4139588969823284,0.4107892163213143,0.36457328098166547,0.38314585269416696,0.3730413890443107
0.44335396027290414,0.36913832152643294,0.4336769269674573,0.4216798126748953,0.39251183915135746,0.4325240273696254,0.39102368293872986,0.4185238963114376,0.41481223631858777,0.3702618998933212,0.3879766549851432,0.3763828087163113
0.44763179566857236,0.36995549457013416,0.4373848162779475,0.4253699333993027,0.3960199621629165,0.4370607418015704,0.3931932217388071,0.42218264989758625,0.41789896871546295,0.37511922793615166,0.39195404635396613,0.37882844886381517
0.45095739697681714,0.36990696832896997,0.44018100541913613,0.42815596147892143,0.39864239478924507,0.4406880715058145,0.3944659591220303,0.4249155372118103,0.4200354353017429,0.37912286156945074,0.3950600381707786,0.38036102111386
0.45331850031561105,0.36898916636759244,0.44205380689140705,0.4300241928019309,0.4003637130442277,0.44339043201223566,0.3948336802959075,0.4267078253852118,0.4212126536596564,0.3822550812644982,0.3972815286600279,0.3809680427320344
0.45470773768363915,0.3672034312103734,0.44299647066400716,0.4309657947435699,0.40117332759123303,0.44515707290948475,0.3942932109051105,0.4275496692089592,0.42142663716385687,0.38450285150455743,0.39861030290046506,0.380641836622478
0.4551226369602991,0.36455602434140627,0.4430071841750443,0.43097680616613454,0.40106548374311213,0.4459820778449857,0.39284641703147327,0.42743611113428776,0.42067839498142384,0.38585782078487724,0.39904303282514547,0.3793795313278813
0.45456562190570093,0.36105812620450467,0.4420890723314885,0.43005813741898075,0.40003926146219987,0.4458643645249354,0.3905002051939944,0.42636708127249845,0.4189739320718617,0.3863163216126908,0.39858127722142833,0.37718306102948584
0.4530440121606672,0.35672583620320225,0.4402501975091712,0.42821557033852176,0.3980985753603133,0.4448076847143031,0.387266522348835,0.4243473973949592,0.416324249187101,0.385879370507216,0.39723148173097667,0.37405916554708385
0.45057002324673306,0.3515801727007544,0.43750355955278586,0.42545975824823,0.39525217469875285,0.4428206242368312,0.38316235588932024,0.4213867649331043,0.4127453428714963,0.38455266799965526,0.39500497884975777,0.3700193903390189
0.4471607665661462,0.34564707302013686,0.4338670957758874,0.4218062259586357,0.39151364338830275,0.4399166029750355,0.37820973364593785,0.4174997769784337,0.4082582054618292,0.3823465986331964,0.39191798792804305,0.3650800865021851
0.4428382494018665,0.33895739344404563,0.42936368096089245,0.4172753697673282,0.3869013999892297,0.43611387487020403,0.3724357238863394,0.41270591428251496,0.40288882508730517,0.3792762309630112,0.3879916151704078,0.35926241077202736
0.4376293749175669,0.3315466999980535,0.4240186557973545,0.41189245745895464,0.38143869771128336,0.43143552792239764,0.3658667045983171,0.4070295452569811,0.39666818566955625,0.3753613175562565,0.3832518536357313,0.35259232552254216
0.43154172989793493,0.32341272334364035,0.4178144854768086,0.4056711030326419,0.3751536244136968,0.42590432014044455,0.3584867380398207,0.40049591762416353,0.38959580007267636,0.3706262949920735,0.37771904681209645,0.345100517295503
0.4245738190985993,0.3145868509889084,0.41078823633427275,0.3986006167583784,0.3680618219673938,0.4195019126603562,0.35034538545927785,0.3930879038080719,0.38168816438333447,0.36509321272490614,0.3713786566702877,0.3367819878217847
0.4167882283021691,0.30514106338232083,0.4030030252700178,0.39073897273542313,0.3601561836046989,0.4122720207749249,0.34151002271304504,0.38484808891469524,0.37301361757944834,0.3587462444217513,0.3642849736741551,0.3276606282441378
0.40824828533450713,0.29514602181121874,0.394520640018891,0.38214851482414525,0.35149740137584656,0.40427621923797513,0.33204666498156654,0.3758400200178051,0.3636392177103857,0.3516329791073912,0.35650198463944627,0.3178024681158281
0.3990160131916748,0.28467106840182377,0.3854015391503156,0.37289029249968336,0.3421499998430926,0.39557480631282016,0.3220199667693747,0.3661259547808259,0.3536306861493235,0.3438144926734473,0.34809238168060475,0.3072722763678238
0.38915213003993204,0.27378422611923553,0.375704852068291,0.36302406085194644,0.33217724547668864,0.38622680377226176,0.3114932219050899,0.3557668614568342,0.3430524075932482,0.3353506481345676,0.33911756221077055,0.29613356130879365
0.37871604921573726,0.2625521987674333,0.36548837901139286,0.35260828058561283,0.3216411466548822,0.37628995689859085,0.3005283635414202,0.3448224188885593,0.3319674300629548,0.32630009562842616,0.32963762894177967,0.28444857062510875
0.3677658792257472,0.25104037098927545,0.35480859105277274,0.3417001180201311,0.31060245366391614,0.3658207344835873,0.289185964155162,0.3333510165083828,0.3204374649030478,0.3167202724157238,0.31971138988416414,0.27227829138084175
0.35635842374681725,0.23931280826649937,0.34372063010015813,0.33035544508971937,0.2991206586980293,0.35487432882851955,0.2775252355471995,0.321409754338339,0.30852288678194045,0.30666740288018773,0.3093963583471518,0.25968245001776635
0.34454918162600134,0.2274322569197214,0.332278308895853,0.3186288393433659,0.2872539958594563,0.3435046557441449,0.26560402884250484,0.30905444299011453,0.29628273369185576,0.29619649852857094,0.29874875293866704,0.24671951235535838
0.3323923468805516,0.2154601441084375,0.32053411101673707,0.30657358394482853,0.2750594411584272,0.33176435455070996,0.2534788344901383,0.29633960366504847,0.28377470694882506,0.2853613579906532,0.2878234975653303,0.23344668359079496
0.31994080869816405,0.2034565778282505,0.3085391908747999,0.2942416676731641,0.26259271251281247,0.31970478807847064,0.241204782262526,0.2833184681545933,0.27105517119209827,0.2742145670190858,0.2766742214323262,0.219919908298569
0.3072463968156592,0.1914775747862727,0.2963439069600231,0.2816843137780556,0.2499079145369437,0.3073765635895547,0.2288349193479468,0.27004343966342087,0.2581785634159877,0.26280734372991493,0.26535312722846993,0.20619348433805637
0.29436076349933094,0.17956724490729137,0.28399930079988883,0.2689534412671551,0.23705645980025913,0.29483108812548686,0.21641812462105953,0.25656742102493535,0.2451958166062736,0.2511891074248146,0.25391045290173697,0.19231896565056866
0.2813352319242626,0.1677664925854656,0.2715553437658567,0.2560999082381978,0.2240879323867448,0.28211921543356827,0.20400121051784895,0.24294246260954644,0.23215650665519955,0.23940798106811229,0.2423943435308047,0.17834634588713033
0.26822001838311943,0.15611509514245336,0.2590606135129613,0.24317320816386406,0.2110505955465717,0.2692905846716151,0.1916296218069279,0.2292193262336918,0.21910901518183074,0.2275108912781225,0.23085147033201275,0.16432437501199276
0.2550640343403485,0.1446515107403277,0.24656235853029604,0.2302215401310422,0.19799145443740332,0.2563935585074265,0.17934744258094115,0.2154474843034681,0.20610038713018047,0.21554355179631696,0.21932720981896267,0.15030054236724402
0.24191488643059528,0.1334128783800414,0.23410649814153087,0.21729180884139077,0.18495625612490002,0.24347522311829123,0.16719739625662192,0.201675119814625,0.1931763307680718,0.20355046348719522,0.20786564380395317,0.1363210766726744
0.22881887645870427,0.12243501790142611,0.22173762250491214,0.20442962461133812,0.1719894895827173,0.230581388190987,0.15522084557479127,0.18794912635256364,0.18038121768713647,0.1915749143382825,0.1965095593979783,0.12243094602577546
0.21582100139971766,0.1117524299831929,0.2094989926132618,0.19167930337208225,0.15913438569250682,0.21775658692178013,0.14345779260035815,0.17431510809233924,0.1677580828028153,0.1796589794601304,0.18530044901072856,0.1086738579017403
0.20296495339887677,0.10139829614293175,0.19743254029397805,0.1790838666695913,0.14643291724391513,0.20504407601642569,0.13194687872231947,0.16081737979865793,0.15534862435435867,0.16784352108631698,0.1742785103505905,0.09509225915346373
0.19029311977162117,0.09140447873711141,0.1855788682090355,0.1666850416646029,0.13392579893458562,0.19248583569016797,0.1207253846537603,0.1474989668258794,0.1431932039048256,0.1561681885734468,0.16348264642464658,0.08172733601154199
0.17784658300358866,0.08180152096108076,0.17397724985498397,0.1545232611326249,0.1216524873701561,0.1801225696677396,0.10982923043185339,0.1344016051180153,0.1313308463410842,0.14467141840115025,0.15295046553867558,0.06861901408427323
0.1656651207506161,0.0726186468490668,0.16266562956295053,0.14263766346393483,0.10965118106426139,0.16799370518336282,0.09929297541785974,0.12156574120873008,0.11979923987381177,0.13339043417208452,0.14271828129715242,0.05580595835765685
0.15378720583873806,0.063883761274176,0.15168062249863756,0.13106609266358005,0.09795882043853107,0.15613739298074777,0.08914981829712808,0.10903053222134015,0.10863473603749518,0.12236124661193318,0.13282111260324775,0.0433255731953939
0.14225000626418827,0.05562344994839398,0.14105807791299002,0.11984509835137777,0.08661108782259057,0.14459050731309425,0.07943326095369097,0.09683384586881541,0.0978723496904297,0.11161865356940556,0.12329268365882873,0.03121400233888738
0.13109470807695012,0.047873109557615395,0.13084345558761748,0.1090132341282424,0.07564240745406137,0.13338914246601863,0.0701844111242867,0.0850125347801595,0.08755418460472562,0.10119624001623805,0.11416716289467681,0.019506128907241432
0.12035632987435767,0.0406435784343249,0.121047868902512,0.09860970096888459,0.06508791530649535,0.12257756467491737,0.061405646276549125,0.07361197822682664,0.07770487902993485,0.09112663392670817,0.10548410864322191,0.008242388078264051
0.1100354989004832,0.03392304909992935,0.11166819354800095,0.08863703561232215,0.05498565714107788,0.11216742786563533,0.05308969313509257,0.06264638479410317,0.06832063343047266,0.08144949052196665,0.0972464773755207,-0.0025517226401561427
0.10013058464239724,0.0276993410571647,0.1027009445514507,0.07909308504851183,0.04533849990733453,0.10215701757456105,0.045228920440920535,0.05211457870421554,0.05939700760076511,0.0721751896395151,0.08944907943267857,-0.012878192590824317
0.09063956333576084,0.021959900932226266,0.0941422762772674,0.0699752942052747,0.03614270271274095,0.09254419854869923,0.03781533895142583,0.042014955325278755,0.05092917425712722,0.06330022381465822,0.08208631150442085,-0.022739854889468614
0.08156001796482458,0.016691802474767863,0.08598798242689584,0.06128070594829474,0.02739405242217581,0.08332641474567055,0.03084060144038974,0.03234548117129498,0.042911919037762494,0.05482061126206802,0.07515215662909253,-0.03213998405890517
0.07288913826242983,0.01188174655790384,0.07823349603882021,0.05300596108112017,0.019087863657921682,0.07450068933371214,0.024296002697983224,0.02310369390215523,0.03533964050276332,0.046731895875785676,0.06864018419365894,-0.04108229602903707
0.06462372071000755,0.007516061178207592,0.07087388948856391,0.045147298345162665,0.011218978799664367,0.06606362469167709,0.01817247953076607,0.014286702323638285,0.028206350134110738,0.03902914722922,0.06254354993370524,-0.049570948136855086
0.056760168537579314,0.0035807014557119286,0.06390387448868952,0.03770055441969762,0.003781767984493447,0.058011402409035004,0.012460610761687358,0.005891186387410822,0.021505672335674617,0.03170696057514818,0.05685499593343669,-0.05761053912643738
0.04929449172375642,6.124963390883448e-05,0.0573178020887988,0.030661163921864073,-0.003229870893098216,0.050339783285871215,0.007150617230084713,-0.002086602808972337,0.015230844433213583,0.024759456845715552,0.05156685062567831,-0.0652061091489497
0.0422223069957407,-0.0030570849202497356,0.051109662675532644,0.024024159406664962,-0.009822512181214202,0.04304410733288768,0.0022323617916857087,-0.009650843022068284,0.00937471667437461,0.018180282652435806,0.04667102879187536,-0.07236313976264509
0.035538837829323766,-0.005789465716352709,0.045273085972571,0.017784171366966483,-0.016003202470554482,0.03611929377140229,-0.0023046506813938494,-0.01680614086254618,0.003929752228693843,0.011962610286190549,0.042159031562092844,-0.07908755393286433
0.029238914448887668,-0.008151429140529744,0.03980134104063341,0.01193542823349886,-0.021779460594415642,0.029559841033348987,-0.006471273300648585,-0.023557531795186888,-0.0011119728124039698,0.0060991377172297835,0.038021946415015814,-0.08538571603203539
0.023316973827404133,-0.010158884455450795,0.03468733627747821,0.0064717563748559245,-0.027159277628690706,0.023359826761278416,-0.010278717161184208,-0.02991048013888369,-0.0057587694356053196,0.0005820885951716166,0.03425044717794948,-0.09126443183967381
0.01776705968643572,-0.011828113800326303,0.02992361941790291,0.0013865800974951024,-0.03215111689186919,0.017512907808356824,-0.01373855134171718,-0.035870879066641534,-0.010019335705708225,-0.004596787750997748,0.030834794026818525,-0.0967309485423826
0.012582822496134356,-0.013175772190907714,0.025502377533744666,-0.0033270783542625067,-0.03676391394503711,0.012012320238366984,-0.016862702904575103,-0.041445050605577294,-0.013902756765621707,-0.00944621631292357,0.027764833486168344,-0.10179295473385233
0.007757519475242867,-0.014218887519486504,0.02141543703387916,-0.007676598798232025,-0.04100707659187703,0.006850879325707701,-0.01966345689569645,-0.046639745636920034,-0.017418504836366158,-0.013975396402883079,0.025029998429163577,-0.106458580414861
0.003284014591093457,-0.014974860554895025,0.01765426366422181,-0.011669763114364969,-0.04489048487866788,0.0020209795553940996,-0.022153456344630493,-0.05146214389601046,-0.02057643921707314,-0.018194001653785617,0.022619308077589426,-0.11073639699327377
-0.0008452214403907865,-0.015461464942506251,0.014209962507726825,-0.015314755244749016,-0.04842449109428516,-0.0024854053769425306,-0.02434570226453747,-0.05591985397230169,-0.023386806284985736,-0.022112180019171822,0.020521368001850608,-0.11463541728404379
-0.004638111154697318,-0.01569684720423363,0.011073277984388008,-0.018620161193608514,-0.05161991977020075,-0.0066767225650550596,-0.02625355365218858,-0.0600209133093583,-0.02586023949545795,-0.025740553773214634,0.018724370120972195,-0.11816509550921128
-0.008102970338722915,-0.01569952673853103,0.008234593851237829,-0.021594969027303904,-0.054488067680483435,-0.010561839892079615,-0.02789072748796592,-0.06377378820485727,-0.02800775938195564,-0.029090219510718336,0.01721609270259901,-0.12133532729790418
-0.01124850803077452,-0.015488395820392983,0.00568393320234848,-0.024248568874331827,-0.05704070384179792,-0.014150046030536345,-0.029271298735862587,-0.06718737381058731,-0.029840773556055092,-0.032172748147119345,0.015983900362995844,-0.12415644968633763
-0.014083826520568898,-0.015082719601354936,0.0034109584688307507,-0.02659075292532537,-0.059290069513405735,-0.017451050442329606,-0.030409700343482286,-0.07027099413244908,-0.03137107670744453,-0.035000184918485694,0.015014744067047718,-0.1266392411178145
-0.016618421349232568,-0.01450213610949224,0.00140497141883527,-0.02863171543305417,-0.0612488781971649,-0.020474983378746897,-0.03132072324203997,-0.07303440203045547,-0.032610850603923304,-0.037585049381517334,0.01429516112825923,-0.12879492144272503
-0.018862181309301937,-0.013766656249421305,-0.00034508684244868165,-0.030382052712423727,-0.06293031563752974,-0.02323239588046018,-0.03201951634636139,-0.07548777921873075,-0.03357266409140187,-0.039940335413545955,0.01381127520875533,-0.13063515191854674
-0.02082538844472361,-0.012896663802298973,-0.0018506358727924596,-0.03185276314047624,-0.06434803982155131,-0.025734259777524693,-0.03252158655488331,-0.07764173626551174,-0.034269473093902054,-0.04207951121253513,0.013548796319280604,-0.13217203520984505
-0.022518718050853436,-0.011912915425822696,-0.0031234558929281,-0.03305524715638998,-0.06551618097887703,-0.02799196768937987,-0.032842798749653235,-0.07950731259314721,-0.03471462061355715,-0.04401651929708011,0.013493020819199966,-0.13341811538827242
-0.023953238674457585,-0.010836540654230294,-0.004175687786548692,-0.0340013072614799,-0.06644934158175077,-0.030017333024848776,-0.032999375796329666,-0.08109597647809744,-0.03492183673061131,-0.045765776506408104,0.01362883141649801,-0.13438637793256897
-0.025140412113712044,-0.009689041898300568,-0.005019833100307961,-0.03470314801919677,-0.06716259634501297,-0.03182258998213828,-0.03300789854418207,-0.08241962505093507,-0.03490523860342033,-0.04734217400037795,0.013940697167779514,-0.13509024972856226
-0.026092093418202338,-0.008492294445352433,-0.005668754043820383,-0.035173376055128075,-0.0676714922261006,-0.03342039354883912,-0.03288530582609085,-0.08349058429634464,-0.034679330468451126,-0.04876107725948039,0.01441267347826905,-0.13554359906916738
-0.026820530888924336,-0.0072685464592454965,-0.006135673489661712,-0.03542500005699728,-0.06799204842504691,-0.03482381950192602,-0.032648894458547045,-0.0843216090531223,-0.03425900364028181,-0.050038326084838124,0.015028402101811354,-0.13576073565438682
-0.027338366078283466,-0.0060404189803801925,-0.006434174973367929,-0.03547143077466479,-0.06814075638448201,-0.03604636440775714,-0.03231631924165313,-0.08492588301417686,-0.03365953651160206,-0.05119023459820533,0.015771111140871014,-0.13575641059131052
-0.027658642580825253,-0.004830839729674602,-0.006577579079966839,-0.03532648102012657,-0.06813457978963214,-0.03710194562207481,-0.03190406220154516,-0.08531701872652843,-0.03289662510456407,-0.052233591241968316,0.01662361504653262,-0.13554581639411592
-0.02778793418752041,-0.0036471417204354123,-0.006557264073320003,-0.03500041974667606,-0.06799095456832026,-0.038004150573293746,-0.031401833453640775,-0.08550854517313154,-0.031973890937119734,-0.05318565877914484,0.01757039065387586,-0.13514466559047
-0.027700112668186377,-0.00246682069372528,-0.006339514001941722,-0.034472670725872505,-0.06772493183346913,-0.038743896437028844,-0.030778137660631318,-0.08549262909366351,-0.03086262564088017,-0.05406361736266481,0.018623676724581525,-0.13455701582156598
-0.027360692447677977,-0.001264985330961893,-0.005890149607039801,-0.033709874610578096,-0.0673222299089676,-0.039289366928077454,-0.03000183131511645,-0.08523698598887589,-0.029529907872249017,-0.05486292835040161,0.019813304009192692,-0.13375636486188452
-0.026736022427095194,-1.7240654552261314e-05,-0.005175898914650451,-0.032679450554121164,-0.06675439382273393,-0.039608510726599475,-0.02904255624042291,-0.08470884689708161,-0.02794365058176261,-0.05555723923616896,0.021168730227549948,-0.1327124332670323
-0.025795314794650675,0.0013067851788953616,-0.004165305004718907,-0.03135176650110571,-0.06599288827162117,-0.03967039848582708,-0.027868056025998587,-0.08387804001637922,-0.02607335574201661,-0.05611758710646459,0.0227200701642854,-0.1313961927914497
-0.024510562548099104,0.0027431777222682655,-0.002828689107419298,-0.02970005189621226,-0.0650091595447327,-0.03944520346135451,-0.02644428512279097,-0.08271691401958572,-0.023890083665591363,-0.056513230518894716,0.024498044399846708,-0.12977983914783528
-0.02285457665784665,0.0043274735304231204,-0.0011372723534023368,-0.027698320290464096,-0.06377510423048283,-0.03890374051861081,-0.02473800514223779,-0.08119851306986,-0.02136572281977967,-0.056713748442834874,0.02653275918924558,-0.12783614372415913
-0.020800903326777403,0.006094396166010381,0.0009368612473841659,-0.02532128177209869,-0.06226308897417504,-0.03801744670047433,-0.022716894298997887,-0.07929649989147597,-0.018472959046822765,-0.05668912873683456,0.028853655029845146,-0.12553842625635497
-0.018323823990253355,0.008077856199474362,0.003420764805694889,-0.022544342966567394,-0.060445950478001644,-0.03675838122727365,-0.020349547410951026,-0.07698515576982248,-0.015185275563910569,-0.05640976814861725,0.031489506661359856,-0.12286055482832081
-0.015398355316114696,0.010310951209053565,0.006340628552987743,-0.01934360703653546,-0.05829699550104422,-0.035099225496787005,-0.017605475899197934,-0.07423938055140383,-0.011476952963181512,-0.055846472315080234,0.03446842306585558,-0.11977694587191848
-0.012000249204679484,0.012825965780779894,0.009721779841423153,-0.015695873681881876,-0.05579000085927314,-0.03301328308424219,-0.014455107788060213,-0.07103469264383908,-0.007323069211722395,-0.05497045576229529,0.037817847467749896,-0.11626256416697375
-0.008105992788743879,0.015654371508479495,0.013588683143864508,-0.011578639139699975,-0.05289921342554814,-0.030474479742317095,-0.010869787705080562,-0.0673472290158625,-0.0026994996515689665,-0.05375334190550765,0.04156455733381138,-0.11229292284127654
-0.0036928084335819573,0.018826826993772194,0.017964940053878022,-0.0069700961842964785,-0.04959935012961773,-0.027457363401139016,-0.0068217768810225,-0.0631537451973236,0.0024170830002947265,-0.05216716304913688,0.045734664373160344,-0.1078440833705805
0.0012613462630541913,0.022373177846071825,0.02287328928573255,-0.0018491341271924507,-0.04586559795811965,-0.02393710416828542,-0.0022842531498705257,-0.05843161527918683,0.008049208651936368,-0.05018436038677648,0.050353614537268526,-0.10289265557860354
0.006777778470934193,0.026322456682586072,0.02833560667440002,0.0038046611828774623,-0.04167361395458059,-0.019889494328783112,0.002768689051169908,-0.053158831913531907,0.014218609836474397,-0.047777784001193736,0.055446188019958986,-0.09741579763702729
0.012877060127350267,0.03070288312831647,0.034372905175554753,0.010011007359964387,-0.03699952521941654,-0.015290948345109169,0.00836203868167233,-0.04731400631355349,0.02094622171207926,-0.0449206928643302,0.06103649925740623,-0.09139121606549751
0.01957902793711606,0.035541863816058394,0.041005334865574464,0.016788925480905846,-0.03181992890993214,-0.010118502857189897,0.014519868097989358,-0.040876368253561356,0.028252182061972858,-0.041586754837301426,0.06714799692813621,-0.08479716573162382
0.02690278337256744,0.040865992386401206,0.04825218294153924,0.024156740085325278,-0.02611189224032139,-0.0043498166824017664,0.021265333053252795,-0.033825766068980516,0.03615583129442822,-0.03775004667039671,0.07380346395302627,-0.07761244985098
0.034866692673562356,0.046701049487728144,0.05613187372123209,0.03213207917563208,-0.019852952481667352,0.002036829184429125,0.028620672697373256,-0.02614266665635102,0.04467571244276995,-0.033385054003079576,0.08102501749530533,-0.06981641998710367
0.043488386847480624,0.05307200277621617,0.06466196864313897,0.040731874217021985,-0.013021116961941864,0.009062531571026804,0.03660720957704059,-0.017808155473327997,0.05382957116537422,-0.028466671363987468,0.08883410896055363,-0.06138897605149643
0.052784761669223954,0.06000300691583638,0.07385916626644838,0.049972360137476884,-0.0055948630660061305,0.016747765127665758,0.04524534963572364,-0.008803936538681587,0.06363435574566846,-0.02297020217093182,0.09725152399670267,-0.05231056630362385
0.06277197768121623,0.06751770172394153,0.08374845253075798,0.05986907532776438,0.0024468617643897614,0.02511238232717049,0.05457650598498116,0.0008876675677026644,0.07410621709213189,-0.016871358730897935,0.10629738249403581,-0.04256218735091549
0.07348741882977763,0.0756991558131975,0.09440304086138239,0.07044464393607508,0.011124640030606713,0.034175613464915815,0.06465587062225164,0.011283715704824338,0.0853073395685392,-0.010146262240045507,0.11599175023452737,-0.03212538414876498
0.08498744691452087,0.08451408760795015,0.10573088769005012,0.0817781315088365,0.020458584177116313,0.04399914393496552,0.07537037585000121,0.02243748729404558,0.09723821537010012,-0.0027714427837077713,0.12641937281532387,-0.020976397702471145
0.09715734716164962,0.09383942921112357,0.11760245200559286,0.09378211249269601,0.03049528447020386,0.05460364718923252,0.08659226826000017,0.03438319809173971,0.10976656782571015,0.005278783886394224,0.1375393796758986,-0.009026059218081209
0.10986659928929318,0.10355373675353213,0.12988977851480837,0.10632488264006258,0.041301641281075704,0.06586317036895747,0.09819538250333319,0.04699400201879625,0.12276053773865228,0.014103667265451134,0.14922291690449013,0.003649917384031004
0.12298638014232491,0.1135371903938803,0.1424664976424603,0.11927646957569032,0.05276154117263249,0.07765055497859559,0.11005514129039974,0.060138515718226926,0.13608994459812696,0.02365208622420388,0.16134291176694923,0.01692146514792947
0.13638956369236127,0.12367159431876376,0.15520782553127896,0.13250863279667752,0.06474432410000902,0.08984045666337742,0.12204855539091318,0.07368720596567191,0.1496262865792512,0.03379900286864394,0.17377407270673934,0.03066043382823591
0.14995072103776377,0.13384037674266838,0.16799056404196094,0.1458948636724686,0.0771214137226849,0.10230934520931041,0.1340542236339031,0.08751238966940103,0.1632427405430606,0.04442150009580545,0.18639288934493753,0.04474058989013183
0.16354612040363664,0.1439285899079703,0.18069310075316872,0.1593103854448516,0.08976631740448321,0.1149355045431764,0.14595233290771234,0.10148823387031217,0.1768141620365068,0.0553987815937637,0.1990776324802321,0.059037616509355836
0.1770537271418282,0.15382291008493607,0.19319540896153115,0.17263215322796002,0.10255462621357204,0.12759903273253376,0.1576246581599986,0.11549075574193189,0.19021708529245962,0.06661217184163643,0.21170835408892474,0.073429113572205
0.1903532037309306,0.16341163757172264,0.205379047681643,0.18573885400827173,0.11536401492246326,0.14018184198571632,0.1689545623977345,0.12939782259041568,0.20332972322970538,0.07794511610958302,0.2241668873249295,0.0877945976755354
0.2033259097762799,0.17258469669437798,0.21712716164606555,0.1985109066446097,0.12807424200801293,0.15256765865183336,0.17982699668720672,0.14308915185454768,0.21603196745294798,0.08928318045880484,0.23633684651977296,0.10201550212676075
0.21585490200995566,0.18123363580683996,0.22832448130532618,0.21083046186814197,0.14056714965142175,0.16464202322077073,0.190128500154017,0.15644631110574078,0.228205388252809,0.1005140517415457,0.24810362718259465,0.11597517694385348
0.22782493429078157,0.18925162729093686,0.23885732282791863,0.22258140228238082,0.1527266637382343,0.176292290323189,0.19974719998308185,0.1693527180480366,0.23973323460582696,0.1115275376010908,0.2593544060001466,0.1295588888553442
0.23912245760432477,0.1965334675563877,0.24861358810030276,0.23364934236318394,0.16443879385833982,0.18740762873052555,0.2085728114186317,0.18169364051810566,0.2505004341744575,0.12221556647176751,0.26997814083679306,0.14265382130032234
0.2496356200628967,0.20297557704080205,0.25748276472690435,0.24392162845875354,0.1755916333059716,0.1978790213549922,0.21649663776421224,0.19335619648524668,0.2603935933070736,0.13247218757894552,0.2798655707345115,0.15514907442843484
0.25925426690555187,0.20847600020967927,0.26535592603011565,0.25328733878963666,0.1860753590797072,0.20759926524957778,0.22341157038268347,0.20422935405138776,0.2693009970379662,0.14219357093903592,0.2889092159128916,0.16693566509988783
0.26786994049808954,0.21293440555641033,0.2721257310502954,0.2616372834487255,0.1957822318824684,0.21646297160804623,0.22921208869622003,0.2142039314510852,0.27711260908734275,0.15127800735949218,0.2970033777691359,0.17790652688544506
0.2753758803330518,0.21625208560227538,0.27768642454576814,0.26886400440125646,0.20460659612152143,0.22436656576493702,0.23379426018631108,0.22317259705152445,0.2837200718613282,0.15962590843880942,0.30404413887805914,0.18795651006642947
0.2816670230297253,0.21833195689644563,0.2819338369928246,0.2748617754848113,0.21244487990847663,0.23120828719556571,0.23705574039376057,0.23102986935251918,0.2890167064519648,0.16713980656652516,0.3099293629920893,0.19698238163472154
0.2866400023341398,0.219078560015983,0.2847653845857219,0.2795266024093167,0.21919559505928843,0.23688818951602358,0.238895772918687,0.23767211698651253,0.29289751263721214,0.17372435492321853,0.3145586950412663,0.20488282529276047
0.29019314911906935,0.21839805956583944,0.28608006923668344,0.28275622275704376,0.22475933709425583,0.24130814048317767,0.23921518942052333,0.24299755871857553,0.2952591688809471,0.17928632748051082,0.31783356113324346,0.21155844145354402
0.29222649138403184,0.21619824417885733,0.28577426890621893,0.28445010598260856,0.22903878523802226,0.2443718219946704,0.2378899960514642,0.2469062634464084,0.2960000323329639,0.1837346190010653,0.3196571685532858,0.21691174724062778
0.29264149186250354,0.21232801626980932,0.2836524008118074,0.2845094534129721,0.23193870241957482,0.24598473008892027,0.2347647063381154,0.24930015020034024,0.29500675300853735,0.18698024503858685,0.3199345057642718,0.22084717648812618
0.2913274632439873,0.20670955373697508,0.2797898792701037,0.28282814032861237,0.23336593527224525,0.24605416964554586,0.22999341059644504,0.2500829881433283,0.29220198948587045,0.18893634193782283,0.3185689732867145,0.22327107974071156
0.28835341210973764,0.19953452628112403,0.27437323119911583,0.27940600735637455,0.23322941413370973,0.24450100073739034,0.2237651681812245,0.24916787187017075,0.2877237886710232,0.1895181668345624,0.3155137688567942,0.22409142703040222
0.28386796265618974,0.19099457150606072,0.2675807283848107,0.27438231740212654,0.2314409988101035,0.2414012144036503,0.21626089052041447,0.24661157930568486,0.28172860479879797,0.1886430976556363,0.31089139726455906,0.22326843348789624
0.27801574104509735,0.18127270024119144,0.2595823874811121,0.267897291090302,0.2279875569956612,0.23689222620047118,0.20765334111516406,0.24254976171820247,0.27436797169287463,0.18624515213371884,0.3048440914479708,0.2209096945994588
0.2709373754035335,0.17054329654152472,0.25053997000990275,0.26008775391829225,0.22298478722957138,0.23110914179211797,0.19810713553981152,0.23711611936461838,0.2657885027658118,0.18238646509479617,0.2975112011131932,0.2171453485255599
0.2627694958238902,0.15897211768767106,0.2406069823610228,0.2510871362564444,0.2165605962377623,0.22418475695097706,0.1877787414418838,0.23044212657311544,0.25613189101904626,0.1771926916972072,0.28902919273459227,0.2121039359258779
0.25364473436387813,0.1467162941858429,0.22992867579227044,0.24102547334806312,0.20884199579198937,0.21624955755755504,0.17681647854209698,0.22265703174316492,0.24553490904289302,0.17078932406088798,0.27953164955473636,0.20591239995930016
0.24369172504652686,0.13392432976785454,0.21864204642940183,0.23002940530940955,0.1999551027098354,0.20743171960047932,0.16536051863435575,0.21388785734552665,0.23412940901654547,0.1633013231309926,0.2691492715843957,0.19869608628392227
0.2330351038659126,0.12073610138245228,0.2068758352687581,0.2182221771396865,0.19002513885665676,0.1978571091747282,0.1535428855800951,0.20425939992567071,0.2220423227148383,0.1548531186696125,0.25800987559977384,0.1905787430577648
0.2217962463258402,0.10728174265290934,0.19475086649608475,0.20572492457429714,0.1791766817347224,0.1876490546357248,0.14148672659443245,0.19389467082466155,0.20939653249374376,0.14556754301847555,0.2462380384609948,0.18168261312282621
0.21009530666510454,0.09367855674203605,0.18238098290632315,0.19266022934845864,0.1675343573386755,0.17692771662678256,0.1293042974207478,0.18291611473105104,0.19631327948354724,0.13556288305284792,0.23395411092119028,0.17212868888534655
0.1980489818407138,0.08003406109997534,0.16987215120084823,0.1791485224351622,0.15522220366373,0.1658106590019342,0.11709901928206837,0.17144437284309644,0.18290964085635397,0.12495594221631814,0.22127542766066602,0.16203641275251862
0.18576946161157154,0.06644637849565954,0.15732244166130405,0.16530731567328516,0.1423637479332645,0.15441275113355643,0.10496597985988416,0.1595980052061454,0.16929770499178382,0.11386295789949265,0.20831726816907775,0.1515234751692396
0.17336479386207249,0.05300478798819819,0.14482177077433864,0.15125086024374906,0.12908173094887052,0.14284644385465828,0.09299206647229118,0.14749338683632796,0.15558462054044375,0.10239962646502468,0.19519226262779532,0.1407059254438886
0.16093902843325317,0.039789941849215985,0.1324517999006706,0.13709001220854372,0.11549799856451418,0.13122187809981536,0.08125601850741121,0.13524466682352998,0.1418726157406541,0.09068111310018992,0.1820101580005019,0.12969821538142146
0.14859221713146975,0.026873865575940847,0.12028593526897693,0.12293223250261633,0.10173350167998885,0.11964688491172433,0.06982842742655489,0.12296376832892575,0.128258998419613,0.07882205181748166,0.16887781801908314,0.11861319928600203
0.13642041372839636,0.014319957891201163,0.1083893279758917,0.10888158693386975,0.08790829624091466,0.10822698544120124,0.058771736764221254,0.11076038858497704,0.11483615599339649,0.06693654545460953,0.15589922318362606,0.10756213396100268
0.12451567396102656,0.0021829907434281204,0.09681887398600801,0.09503874618316453,0.07414154323874017,0.09706539094718371,0.04814024212809861,0.09874199889543446,0.1016915554669599,0.05513816567450124,0.1431754707624206,0.0966546787090049
0.11296605553167309,-0.00949089069334505,0.0856232141318762,0.08150098580431803,0.06055150871074061,0.08626300279672981,0.037980091199064384,0.08701384463533757,0.08890774343413599,0.043539952965301616,0.13080477479195896,0.08599889533179854
0.1018556181079674,-0.020664168019483342,0.07484273411400513,0.06836218622410398,0.047255563740018984,0.07591841246501789,0.028329283731184436,0.07567894525101353,0.07656234607763616,0.032254416640372326,0.11888246607693537,0.07570124813038229
0.09126442332285994,-0.03130794960975011,0.06450956450086105,0.05571283274225322,0.03437018445550571,0.06612790153534712,0.019217671551713687,0.06483809426007782,0.06472806916905016,0.021393534838292483,0.10750099219024664,0.06586660390496311
0.0812685347746198,-0.041401970613306,0.0546475807288686,0.04364001553145325,0.022010952031958367,0.056985441699137176,0.010666958561095917,0.054589859251434766,0.0534726980688456,0.011068754522858472,0.09674991747299132,0.056598231954957
0.07196513056712478,-0.05093459295371017,0.04527240310241037,0.03226604386019781,0.01034775121780427,0.048639551555826555,0.0026907007329637217,0.04508767710062013,0.042865458928953444,0.0014616224697577146,0.08676460963144714,0.04805314962694873
0.06341107416504593,-0.05990280532891981,0.03639139679382653,0.021633437425789895,-0.000339157585408853,0.04109323004714775,-0.0046959204417193305,0.03634586695335897,0.032947632286213405,-0.006506150117164225,0.0775631978572645,0.04031291242337258
0.05527929478886999,-0.06830946788256961,0.02810124077147916,0.011435678858218511,-0.010262177379744102,0.0340886685860986,-0.011186926848986607,0.028112399635299958,0.0234033359988595,-0.01309403936543791,0.06885806210167278,0.033156034691703834
0.047217088925342175,-0.07596903884655347,0.020220154462145465,0.0013566362628306197,-0.019688805957182046,0.027365991957514824,-0.017405809016985817,0.020131818621747108,0.013858472029812866,-0.018903565233962312,0.06035825302666763,0.026349106897534946
0.03889290747522111,-0.08345944469439873,0.011942873929842113,-0.008905356069310963,-0.028874532625626503,0.02066779190216477,-0.02425436086117427,0.012150337539752067,0.003960812655771714,-0.024463785477877815,0.05178089062437867,0.019658873221814463
0.029996355753278296,-0.09162177190079115,0.0026014706069401976,-0.01963749766142788,-0.03806283820890494,0.013739127116749711,-0.03243151389691444,0.003915840168113704,-0.006619999532790036,-0.03023129564856642,0.04285116421706904,0.012852231560845605
0.0202381934882985,-0.10110311958695534,-0.00830318565526287,-0.03111252185102551,-0.04748519504676766,0.006327523253903592,-0.04243333723947457,-0.004822119562621952,-0.01819245163162108,-0.036590229093651554,0.033302332457135306,0.005696233526287536
0.009350334823079523,-0.11235659952065485,-0.021101426586543903,-0.04358869578989397,-0.057361066994888896,-0.0018170270778069438,-0.05455303760402802,-0.01431231757016124,-0.031043160422693977,-0.04385225695699814,0.02287572332710791,-0.0020419155548456504
-0.0029141516855676966,-0.12564133611619233,-0.035954785497753286,-0.05730982044410725,-0.06789790942486579,-0.010942064313882336,-0.06888095930565348,-0.024801859620463572,-0.04543687237420467,-0.05225658817871272,0.011320734139650651,-0.01059485664018434
-0.016781043066818928,-0.1410224664344088,-0.05285599728081611,-0.07250523059402349,-0.07929116922421894,-0.021292661933890518,-0.0853045842593354,-0.036536181327740884,-0.061616463640572654,-0.061969969495143155,-0.0016051684624387094,-0.02019507697200352
-0.03245496193583712,-0.15837114018268456,-0.07162899840873078,-0.08938979483428523,-0.09172428479639233,-0.03311142646146654,-0.10350853197996308,-0.04975904815445788,-0.07980294006244067,-0.07308668543887883,-0.016136448506228966,-0.03107491007722274
-0.05011937649377185,-0.17736451971493872,-0.09192892693557023,-0.10816391557381914,-0.10536868606075314,-0.04663849746431265,-0.12297455958233171,-0.06471255541133185,-0.10019543716667499,-0.08562855833875069,-0.03249950068865541,-0.04346653576740638
-0.06993660052775968,-0.19748578003162914,-0.11324212249648112,-0.12901352903583613,-0.12038379445259216,-0.06211154755419847,-0.14298156178114146,-0.0816371282573329,-0.12304718756373503,-0.09954494831983116,-0.05091265037651947,-0.05760198013876322
-0.092229537192695,-0.21802410877975265,-0.13488612630768404,-0.15223917000532838,-0.13691702292312313,-0.07976578238696092,-0.16260557089099825,-0.10077152169968384,-0.1476853550117997,-0.11471275330343421,-0.07161084419064849,-0.07371311557214685
-0.11579985992612758,-0.23807674314803182,-0.15622483024174283,-0.17767578909470375,-0.15510377593948343,-0.10022336600427807,-0.1808883442612048,-0.12268203728600953,-0.17196443546580958,-0.13093640900711523,-0.09511272920300125,-0.09203166073305542
-0.13806258090361984,-0.25694556444485284,-0.1748616768958943,-0.2027778081555355,-0.1750674494847337,-0.12272623091854724,-0.1970120331366024,-0.14704602677097978,-0.19370904190965968,-0.14794788894467115,-0.11934213425440669,-0.11341756698503386
-0.1565729588180528,-0.27191578343076084,-0.18758348122522428,-0.22491422211239248,-0.19692565108827842,-0.1442834858108605,-0.20714162051028942,-0.17085045247667122,-0.21078353412406323,-0.16540670442614053,-0.14148245371899343,-0.1371050584585287
-0.16904092190770373,-0.27953874803984746,-0.19157524119413374,-0.24164906741132244,-0.2209706768943106,-0.16211127759456853,-0.20752979423878568,-0.19120447883695607,-0.22109201868655162,-0.18289990455780283,-0.15894337367587136,-0.1596474791684687
-0.1733310679562456,-0.27688588688723004,-0.1844202994284383,-0.25074142201985283,-0.24470603687582382,-0.17368912480042864,-0.1951431565996737,-0.20549492092130445,-0.22257834897147435,-0.1999420762421799,-0.16936087190913143,-0.1779149770417946
-0.1674626642927473,-0.2615487092690507,-0.1641003432153684,-0.25014540542698993,-0.26473705307271134,-0.1767599175766044,-0.16766222429159824,-0.21138624443478468,-0.2132261251499991,-0.2159753441780345,-0.17059721790784627,-0.1891457864545286
-0.14960964779167393,-0.23163880516247753,-0.12899540450356864,-0.23801017864321983,-0.2780613319351019,-0.1693299176886658,-0.12348142843426674,-0.206820565718063,-0.19105869419011165,-0.23008655284876178,-0.1607409728660693,-0.19094622823177382
-0.11810062487288644,-0.1857878452257033,-0.07788385990309879,-0.2126799442005078,-0.28206876432336025,-0.14966875851958916,-0.061709114568448735,-0.19001765174740384,-0.1541391498566161,-0.23904181138196162,-0.13810698968283558,-0.1812907096477145
-0.07141887150164195,-0.12314758079794655,-0.009942430685432959,-0.1726939461522985,-0.27454152550808686,-0.11630944506975721,0.01783245734402323,-0.15947492013466966,-0.10057033271113457,-0.2391254806720178,-0.10123641296216153,-0.15852172442561593
-0.008202333188593255,-0.043389843899450886,0.0752538172165402,-0.11678647007351572,-0.25365407517011773,-0.06804835395695932,0.11460711292025445,-0.11396743912732087,-0.028494004154528938,-0.22730380602696265,-0.04889667901304438,-0.1213498527378251
0.07275637501020824,0.05329345276851173,0.17773147320851396,-0.04388684306056494,-0.2179731574005262,-0.003945233416392652,0.22736476335628467,-0.05254792760841816,0.06464804529217821,-0.20122648292561707,0.019918484150534654,-0.06885376120577125
0.17270722367038968,0.16619031582365257,0.29749634308965067,0.04688056626867494,-0.16645780070061783,0.07667679669934399,0.35414140542710026,0.02545324490338561,0.1769551384275212,-0.1592266570175872,0.10598905680961915,-0.00048020289996059465
0.29482143530744515,0.2940688009353867,0.4375230234958407,0.15672386025981133,-0.0984593179819368,0.1742312449202411,0.49225912148661627,0.12042805825383361,0.3034795113774868,-0.10032092412326855,0.20986872754026664,0.08395598266001585
0.43220059533649424,0.4348967871897229,0.5874969387327382,0.2882760852997964,-0.013721306566262192,0.28886824815888407,0.6384458038726587,0.2324908416530734,0.4388602947740377,-0.02420933023384341,0.3334162480942742,0.18427186950548666
0.5753609956726851,0.5801976687842748,0.7347128490374588,0.4320340139523259,0.08762035181439123,0.42119155306188377,0.7846748638279525,0.3617384965793243,0.5773235137551089,0.06872462848871812,0.4765475201868169,0.29991644521869965
0.7157098376228328,0.7197230390795796,0.8684626735529086,0.5771321729261492,0.20503749101777258,0.5665147824891378,0.9185459927648905,0.5048861872303692,0.7126820879646077,0.17741400571165877,0.6269666754192456,0.4299706109328205
0.8455452318854191,0.8445074963835187,0.9800354903277845,0.7141020427483807,0.33765144689603205,0.7135973286090704,1.029811519404093,0.6513858785326498,0.8383358315524158,0.30010840493143354,0.7731522930393437,0.5727993314083386
0.9580561985505913,0.9468686439513189,1.0627175363165735,0.8348720577645015,0.4826901779122983,0.852448110191772,1.110651405752943,0.7912807490946921,0.947271453174385,0.4343739794737103,0.9053470583680631,0.719413616876977
1.0473226671001659,1.020407089985552,1.111792207379554,0.9327676061383566,0.6301264626566806,0.9745393006797658,1.1556732471055853,0.9159202973326805,1.0320625559923426,0.5773280319951021,1.0155577627995238,0.8582108294427571
1.1083154764076226,1.060006447636133,1.124540058282796,1.0025110298521573,0.7696372966313384,1.0728063281880051,1.1619122720429276,1.0179603414704563,1.084869637674088,0.7223322152618775,1.0975553038010135,0.9794534795233294
1.136896374738111,1.0618333350003237,1.100238802698157,1.0402216247064797,0.8923306102192866,1.1416478755038761,1.1288313424326415,1.09136301953952,1.0974400903933919,0.8577382965390687,1.146874684912988,1.0752800946616217
1.129818019748445,1.0233326413444812,1.040163313203289,1.0434156403202657,0.990745268684393,1.1769258800871965,1.0583209534291613,1.1313967893790287,1.0637496868127938,0.9736245845844984,1.1608150157490722,1.1397052195258357
1.0847239784871059,0.9458080143473736,0.947585621281632,1.0110062801308226,1.058851072171381,1.1759655340702153,0.9546749078192145,1.1346364286357977,0.9897138667385197,1.0622038451073355,1.1384395119960573,1.168619415909454
1.0004519846229896,0.8378451286476067,0.8277748387109806,0.9433035072748499,1.0920486587542702,1.1375553408437138,0.8248816060438022,1.0989630613337962,0.8843369561821428,1.1178233607821657,1.0805754878318272,1.1597893403592632
0.8836155709615181,0.7084731852853239,0.6882169591816054,0.8420106576507826,1.0871676152221241,1.0619482177031896,0.679184701357247,1.0236918132173507,0.7560869033796378,1.1369661006932665,0.989814208179719,1.1128592568481435
0.7455186030413664,0.5660189925898282,0.5395283522661716,0.7135664010084756,1.0424666037260215,0.9526541751983318,0.5271319898736524,0.913893238486906,0.6128953536772804,1.118250641938747,0.8705108986129307,1.0293508292698759
0.5960005354311204,0.4181072856869129,0.39000302817167193,0.5690823888578103,0.9584935383101031,0.8197676938680702,0.37682099765140153,0.7802094132110499,0.4621592936434318,1.0624300628816212,0.7303001027932317,0.9138977602812558
0.4435768860290161,0.2716607392917426,0.24623903788173418,0.41755468911333826,0.8431871525374091,0.6734180347317563,0.23489897751703215,0.6324687029800468,0.31074111689778267,0.972390092447265,0.5802026509079583,0.7765588972924633
0.2954392360629423,0.13289996770885465,0.11365504447899537,0.2667318376976111,0.706673467745595,0.5224024071599243,0.10656290906523526,0.4792745445319633,0.16496862411135682,0.8535416224681176,0.428046064813652,0.6273725576837441
0.157455230090439,0.007343524832157111,-0.003509676854897918,0.12311483854118227,0.55803541579141,0.37418673195561436,-0.00444050134114593,0.32800544575266666,0.030635023006506668,0.715412364035848,0.2804524013137026,0.47501085768086165
0.0341685759986984,-0.1002521615981137,-0.10219523883928949,-0.008042836417393576,0.40530342975412054,0.2349056413543718,-0.09581482057111415,0.18481498567582622,-0.08700107164308202,0.5675193617196758,0.14292718047070543,0.326779712355095
-0.07120095499543629,-0.18762024734846228,-0.18052114209451403,-0.12273524723156065,0.25545544393550795,0.10936247902424681,-0.16671388872551907,0.054631814482913016,-0.18374037057814202,0.41805023297289484,0.019859385606460254,0.18861883562323967
-0.15675752834546922,-0.25505715968373804,-0.23778627514189607,-0.21820398594676205,0.11441689385986999,0.0010293000657961016,-0.21589819121383608,-0.05884034649680147,-0.25932982794065823,0.27386316813287714,-0.08547853669802749,0.06510174024760829
-0.22192924617525392,-0.30333051622683993,-0.2744689144037515,-0.29293817660043925,-0.012939283725979703,-0.08795312898791977,-0.24304336857227285,-0.1531227047862421,-0.3146654421822892,0.14048693042106994,-0.17093067660254696,-0.040564262163970286
-0.2674681472789922,-0.333560441245591,-0.29222672420338597,-0.3466744752220321,-0.12279265085271196,-0.15677533017133338,-0.2522066689651087,-0.22668275967816748,-0.35093822943862385,0.022120855942996516,-0.23545766100768223,-0.12653806115814964
-0.293356045214591,-0.3472195656527397,-0.293896756765096,-0.38039706983298016,-0.21236142529136431,-0.2058869952335541,-0.24717181000162006,-0.2769829531879125,-0.36970197215667017,-0.0783651463117418,-0.2791366535548125,-0.1922731290336325
-0.3010871606683371,-0.34613302700595927,-0.28318050040761256,-0.39633768044672135,-0.28078140324206696,-0.23430063390134667,-0.23136042251711333,-0.30661493197599404,-0.3728732190948568,-0.15943059446946992,-0.30316135462611193,-0.2362416586391373
-0.2946743230237046,-0.33247846950784804,-0.2621822400281996,-0.3975599215634973,-0.3292003593862038,-0.2442857550901335,-0.20783205057292473,-0.3192410811916778,-0.36273128532303145,-0.2202532514546183,-0.30984200134454787,-0.26044951279663525
-0.27772762027508857,-0.30878604400592874,-0.23407785370049738,-0.3853786927108946,-0.35913177387543266,-0.2397613353939792,-0.17928415145641938,-0.3182242453407195,-0.34191825222246197,-0.25955232558802893,-0.30260536757388495,-0.26847897002454724
-0.253453314542302,-0.27793840799264946,-0.20198726725086702,-0.3631026258382545,-0.3723493073317236,-0.22426609069808992,-0.14805209568099245,-0.30662772828536455,-0.3134389674858357,-0.28033165587268666,-0.2855326841969513,-0.26362296889364817
-0.2246538420705756,-0.24317072560538303,-0.16852914154367454,-0.3341314209496736,-0.37088680084735715,-0.20095847617881307,-0.11610916698606857,-0.28721529324434814,-0.28066104511726014,-0.28588698450968314,-0.2606310679791131,-0.24888510802706604
-0.19372781323055793,-0.2080633474600662,-0.13582087248129057,-0.3013982846177633,-0.3570382759849261,-0.17261668630363738,-0.08506656233710216,-0.2624511627928952,-0.2472230474588874,-0.2792596611627379,-0.2307130346157582,-0.22697964610028248
-0.16267001251831556,-0.17518105655225027,-0.1054785910040907,-0.26736992998364933,-0.33335793477733383,-0.1416386548311931,-0.05617339192557672,-0.2345000188627211,-0.21536733578959055,-0.26323664295819826,-0.19845070459918207,-0.20033150184113244
-0.13307139855533268,-0.14512129477846708,-0.07861716309045481,-0.2340465767569717,-0.3026601597277958,-0.11004205481125184,-0.03031667916900581,-0.20522700274203012,-0.18597378808150178,-0.24035049448503978,-0.16606375540203167,-0.17107625402980456
-0.10611910408851159,-0.11828994502957153,-0.055850189756767865,-0.20296195121588523,-0.2680195138098386,-0.07946429858472635,-0.008021360710932575,-0.1761977150755173,-0.15967723685189894,-0.2128793877948659,-0.13531942147730663,-0.14106014149884047
-0.08259643599017212,-0.09491722988309635,-0.03729000705741933,-0.17518328620705892,-0.23277074046729995,-0.051162537783670976,0.010549713579070655,-0.14867821586436683,-0.13687485137346117,-0.18284710240190793,-0.1075324942583585,-0.1118400631331361
-0.06288287525805213,-0.07505771160325171,-0.022547686084803384,-0.15131132114567597,-0.1997567995044433,-0.026013663331281037,0.025595780605401956,-0.12363502446625309,-0.11772613767426793,-0.15202302528302528,-0.08356532215889084,-0.0846835778699398
-0.04695407701530739,-0.05859029214092562,-0.010733032969319187,-0.1314803020154345,-0.169733126077225,-0.004514305441894323,0.03767816404642899,-0.10173511959534039,-0.10215293853779932,-0.12192215087770535,-0.0638278105729596,-0.06056890469885423
-0.03438187051051155,-0.04521821313368368,-0.000757893042117094,-0.115357981368547,-0.14303830100727294,0.013219166379011785,0.0477068176138574,-0.08334593932228265,-0.08983943350293619,-0.0938050810880634,-0.04827742187497287,-0.04018492266183498
-0.024334259117655997,-0.0344690559057693,0.007669708403678592,-0.10214561832574007,-0.1198505127224137,0.027450643334816942,0.05641965030366699,-0.06853538107422333,-0.08023213886396027,-0.0686780252788427,-0.03641917541969053,-0.023931170853191665
-0.01590091092180595,-0.02569474146810341,0.014934376671643993,-0.09081127596128802,-0.1001871200151227,0.03882427733776009,0.06412184428188714,-0.05701101867476258,-0.07253990767055359,-0.047292800277414816,-0.027305647542225003,-0.011315463319180747
-0.008742550904383004,-0.018071530518284765,0.02139706048355588,-0.08102369661111936,-0.08390465204252459,0.04830122609252509,0.07108194039703242,-0.04748309130311523,-0.06575393300741936,-0.030144512877214296,-0.019653856125179434,-0.0012939459211506413
-0.0025388345789346747,-0.010831550632234337,0.027372754991300832,-0.0724180781080541,-0.0706988083263933,0.05644222907048221,0.07754122049593747,-0.03933755589406223,-0.059387314576255665,-0.01667260985822068,-0.013131488417605437,0.0067129699298136645
0.0029995031879313065,-0.0038898502673613607,0.033130501776875605,-0.0646465072844569,-0.06010445875315193,0.06354663323080345,0.08371370742375762,-0.032284532843236576,-0.0533283950415101,-0.005849810859034674,-0.00752033937557696,0.01322430850974965
0.008129805737568333,0.002892509984686705,0.038893388852386815,-0.0574019472952277,-0.051495643573872374,0.06990017652106315,0.08978616502396826,-0.026056763607585326,-0.04739325679898301,0.002888829048603457,-0.0025212061393511363,0.018698551414496743
0.013077494619291741,0.00964753027022709,0.044838550660051095,-0.05041823761780233,-0.04408557340427634,0.07575917053982219,0.09591809813836512,-0.020409610705369507,-0.04142261335606641,0.01005000159983092,0.002127727515937948,0.023533637559696306
0.018036069590377977,0.016488337582481506,0.051097168072195075,-0.04347009405215256,-0.03706808866107324,0.0813505005366272,0.10224175260706446,-0.015121057716163951,-0.0352818093317441,0.016082145336661878,0.006650891180279473,0.028066963180791937
0.023167108616065128,0.023509185761575332,0.05775446839125535,-0.036373108720785516,-0.03030015125568941,0.08687162541201149,0.1088621152685026,-0.00999170928085779,-0.028860820456591288,0.02137544560798786,0.011235327808785693,0.03257538183302897
0.02860026786955261,0.030785455494538396,0.06484972534977874,-0.028983750068743826,-0.02365933692130511,0.09249057771749444,0.11585691395943648,-0.0048447911016537455,-0.022074253572775107,0.026261834569577504,0.016030693721691747,0.03727520439145479
0.03443328173200104,0.03837365431530415,0.07237625911042103,-0.021199362863606533,-0.017015762247023038,0.09834596365558154,0.12327661751494295,0.00047385005793110224,-0.014861346634054584,0.031014991184076576,0.0211492586043562,0.0423221990509184
0.04073196279253359,0.04631141660471161,0.08028143626594997,-0.012958168195487257,-0.010257637734759007,0.10454696307976521,0.1311444357684202,0.006095746373066698,-0.007185968705779283,0.035850341221008185,0.026665905507261122,0.0478115913260716
0.04753020184823382,0.05461750359050263,0.08848179111550337,-0.00423926347703614,-0.003291267799244317,0.11117332949452345,0.1394563195515857,0.0121298089576081,0.0009633800351085617,0.04092505725677263,0.03261813084601106,0.05377806405136745
0.054829967904146966,0.0632918033473237,0.09703367552611444,0.004937377556561567,0.0039589492319756815,0.11827539005532098,0.14818096069447761,0.018662327864096613,0.009573568300075143,0.04633805867464702,0.03900604440133373,0.060195757381061386
0.06260130817328002,0.07231533079672545,0.10596613367904549,0.014510904847584133,0.011550521118541168,0.12587404556860823,0.15725979202545465,0.025756972083759867,0.01860683368899508,0.05213001166478606,0.045792369319080414,0.06697826878921023
0.07078234807660125,0.08165201930583346,0.1152780625828408,0.024388578541130634,0.019522861707277815,0.13396077049182234,0.16660815215322264,0.033454789546511356,0.0280526399067971,0.05828332922422163,0.052908826058492286,0.07407599805698083
0.07928312979855448,0.09130841495431831,0.12496494652161873,0.03461912517845629,0.027897290932196842,0.14249761293338675,0.17624645781290274,0.04177420712095052,0.03793927539859212,0.06472217115686248,0.060388959253953094,0.08160638196280538
0.08814217268404365,0.1012945818279253,0.13501885705507125,0.04523950279924378,0.036677034814495225,0.15141719465271092,0.18622138998753743,0.050711030614363335,0.048263555275985734,0.07136036211685208,0.06826371896515365,0.08958183927348944
0.09740508202181636,0.11160233582857433,0.1454284530184645,0.056245312132394726,0.04584722546255536,0.16064182845297525,0.19652061460084422,0.0602384447727215,0.0590189448628758,0.07830806194803049,0.07653281154077338,0.09800732104647418
0.10706454028840735,0.12222038009635375,0.15617898052263873,0.06762891122032413,0.05537490107768606,0.17024353971329897,0.2071286737248127,0.07030701328068249,0.07019556487781996,0.08558979066017078,0.08519266197771776,0.10688445268096827
0.11711005878150238,0.13313430500951967,0.1672522729540077,0.07937941541896085,0.06525096053116047,0.18024259490008243,0.21802698557970385,0.08084467876159054,0.08178019143403649,0.09320864293980367,0.09423641392111784,0.11621153391794864
0.12752797761993814,0.14432658818449678,0.17862675097455935,0.09148269739774678,0.07549338149194769,0.19063047392802285,0.22919384453405056,0.09175676277747521,0.09375625603940421,0.10116453599563868,0.1036539296643308,0.12598353884015978
0.13830146574370292,0.15577659447587777,0.1902774225218558,0.10392138713963782,0.08609399526761835,0.20139557979252803,0.2406044211046578,0.10295909135765499,0.10610384559646224,0.10945420955856391,0.11343179014894025,0.136192115872114
0.14941052091393603,0.16746057597642383,0.20217588280903276,0.11667487194110328,0.0970415187981588,0.21252323856971517,0.25223076195660177,0.11457126472415315,0.11879970240241086,0.11807122588164622,0.12355329496475492,0.14682558778009178
0.1608319697082505,0.17935167203345476,0.21429031434190277,0.12971929642962754,0.10832155467528438,0.2239956993953218,0.2640417899179136,0.12660245614317112,0.1318172241437139,0.1270059697576815,0.13399846236106974,0.15786895164632078
0.17253928370594168,0.19142055336828726,0.22658615904949828,0.14302825036684008,0.11991735013338518,0.2357913056276275,0.2760038809909859,0.1390265336459538,0.14512625185454228,0.13624633821856771,0.14474447174611985,0.16930286415413637
0.18450209186124178,0.20363713080632628,0.23902790132245413,0.1565745932633822,0.1318118105125481,0.24788229609553336,0.28808239505743377,0.15181239517878045,0.15869250740961718,0.14577957018055893,0.15576683755653234,0.18110094973663238
0.19668669868245084,0.21596873948602757,0.2515771732578712,0.1703285154423005,0.1439853596414637,0.26023714161388123,0.30024004926650616,0.16492614313015438,0.17247819127540404,0.15559030216209152,0.16703816183876583,0.19323266108668616
0.20905632855080075,0.2283797422363659,0.2641921617240387,0.1842568430017132,0.15641516570618713,0.2728213215130456,0.31243651281654294,0.17833165788976874,0.18644212364672585,0.16565998682678423,0.17852763415238576,0.20566416466713502
0.22157147248259307,0.24083206447640806,0.27682748457054096,0.19832257494708644,0.1690746032173991,0.28559764900941864,0.32462869601610816,0.19199033269610574,0.20053960861500458,0.17596686869724523,0.19020053215430008,0.21835849086933182
0.23418958174430096,0.25328472159984267,0.28945951200830544,0.2124852921622975,0.18193372839421487,0.29852598372130545,0.3367704948813487,0.20586130791429608,0.21472255418366812,0.18648600561336226,0.20201866286218295,0.23127540133916255
0.24686493644880583,0.26569361627748667,0.3020632864021747,0.22670133281102375,0.19495948304897698,0.3115631083714196,0.34881268159773726,0.21990157151428252,0.2289395237409123,0.1971892779354333,0.21394055190555877,0.2443713320752181
0.2595486455301398,0.27801153841832477,0.31456547492351866,0.24092379237045625,0.20811569462644344,0.3246627287631848,0.36070290449901876,0.234065959090134,0.24313573606959332,0.20804538854593452,0.2259214435621782,0.2575993993448078
0.27218864674348636,0.2901881651695106,0.3268952325371838,0.2551025236312993,0.2213630762037876,0.3377754737807348,0.3723856880672096,0.24830715386004407,0.2572530653472273,0.21901986284952157,0.2379133007580173,0.27094084956270786
0.2847297066651801,0.3021700609163659,0.33898481811437914,0.2692063788511383,0.23465922649059795,0.35084889538891384,0.383802432932598,0.26257568666633185,0.2712654669729001,0.23007504877302798,0.249893819534072,0.28435693479475177
0.2971136062858131,0.31390228180313196,0.3507695944326769,0.283211140172414,0.24795862982887898,0.3638274686332754,0.3949128200480866,0.2768199359754418,0.28513416408120834,0.24117214198985987,0.2618320394145627,0.2977729023775847
0.3093197626926274,0.32537350387461494,0.3621880281760118,0.2970424343920908,0.2612126561930501,0.37665259164008413,0.4056989163255298,0.290986127877944,0.29877748682129074,0.25230521557471874,0.27365447330952275,0.31111656402223614
0.3213037231277738,0.3365334481784486,0.3731816899346817,0.3106280777992658,0.2743695611899467,0.3892626278951613,0.4160859627430412,0.30501833608853346,0.31211798779852107,0.263426755834576,0.2852908202462724,0.3243182958141202
0.332987704113082,0.3473086354081446,0.38369525420534717,0.32389934714413293,0.28737448605881877,0.4016319824701043,0.4260014121672134,0.31885848194603084,0.325082460581054,0.27447143880243396,0.2966740963103588,0.3373110382130348
0.34429846150717597,0.35763020342644053,0.39367649939103155,0.3367909796379819,0.3001694576713323,0.4137172258768205,0.4353778211609516,0.332446334413382,0.33760193969982605,0.2853764252339693,0.3077406346455564,0.3500302960531627
0.3551672905054742,0.3674339072652998,0.4030763078011211,0.34924117295319984,0.31271387133319484,0.42543872107960357,0.4441528499834756,0.34571951007765783,0.34961170064855535,0.2960813606075327,0.31843008545386625,0.36241413854307064
0.3655300256401899,0.37666011912591163,0.41184866565136485,0.3611915852232701,0.32499079677179954,0.43672150499684526,0.45226926259031897,0.35861347315005543,0.3610512598837415,0.3065283751241492,0.32868541599551726,0.3744031992657099
0.3753270407803308,0.385253828378691,0.419950663063875,0.3725873350427729,0.33692551905005846,0.44749528850103576,0.45967492663332876,0.3710615354658963,0.3718643748246652,0.3166620837075182,0.33845291058896426,0.3859406761784161
0.38450324913169887,0.39316464156327885,0.42734249406712616,0.38337700146738474,0.34844482048698444,0.45769445641876383,0.46632281346066606,0.38300282345647474,0.38199904385338923,0.32642958600401284,0.34768217061089035,0.3969723316129089
0.3930081032368912,0.4003467823885415,0.43398745659595606,0.3935126240138791,0.3594802435511269,0.467258067530716,0.4721709981168061,0.3944160029040701,0.3914075063147575,0.33578046638268133,0.356326114496205,0.407446492275293
0.40079559497529943,0.40675909173257196,0.4398519524915646,0.4029497026601257,0.3699680908605721,0.4761298545716781,0.4771826593425369,0.4052419253915435,0.4000462425163954,0.3446667939352456,0.364340977738045,0.4173140492460566
0.4078242555631093,0.41236502764268834,0.44490548750151604,0.4116471978450912,0.37984942518294307,0.4842582242305335,0.4813260795749617,0.41541845225104146,0.40787597372870993,0.353043122476102,0.3716863128877741,0.42652845798007283
0.41405715555330136,0.4171326653354347,0.4491206712797361,0.41956753046883866,0.3890700694353993,0.4915962571502643,0.48457464494749636,0.42488891518368177,0.4148616621848897,0.3608664905423211,0.37832498955498295,0.4350457383065986
0.41946190483565077,0.4210346971965811,0.4524732173865137,0.4266765818925281,0.3975806066846372,0.498101707927951,0.48690684528987105,0.4336021162595539,0.42097251108090433,0.36809642139364745,0.38422319440749,0.44282447442927597
0.4240106526367273,0.42404843278112336,0.45494194328850046,0.43294369393841553,0.4053363801468897,0.503737005114772,0.4883062741281301,0.4415123279177187,0.42618196457550567,0.3746949230125004,0.3893504311713398,0.44982581492613066
0.4276800875198955,0.4261557988132829,0.4565087703587117,0.4383416688898539,0.41229749318792697,0.5084692512160052,0.4887616286846313,0.4485792929662089,0.43046770779022636,0.3806264881039732,0.39367952063080486,0.456013472749573
0.43045143738531355,0.4273433391865074,0.45715872387652456,0.4428467694912934,0.4184288093230546,0.5122702226910254,0.4882667098780457,0.45476822458202826,0.433811666809381,0.3858580940958332,0.39718660062838407,0.46135372522639767
0.4323104694699356,0.4276022149634702,0.45687993302767943,0.4464387189482796,0.4236999522171166,0.5151163699533066,0.48682042232335937,0.4600498063111524,0.4362000086800656,0.39035920313852274,0.3998511260648035,0.4658154140577833
0.4332474903475094,0.42692820437607015,0.45565701787015306,0.4491007009274557,0.42808530568449255,0.5169888173704211,0.48442677433187115,0.4644001920685287,0.4376231414121573,0.3941017621051573,0.40165586889901694,0.46936994531929355
0.43325734592857756,0.4253217028254324,0.4534214399858475,0.4508193595565608,0.43156401368909897,0.5178733632640398,0.4810948779111943,0.46780100613807596,0.43807571397831513,0.3970602025915275,0.4025869181482043,0.4719912894608758
0.4323394214604774,0.4227877228819072,0.4501976499426207,0.4515847994244312,0.4341199803443891,0.517760479909931,0.4768389487652558,0.47023934317268395,0.43755661631397963,0.3992114409160979,0.40263367988777343,0.47365598130686226
0.4304976415273402,0.41933589428507184,0.4460374656985774,0.4513905855809998,0.4357418699133533,0.5166453135379625,0.47167830629429597,0.4717077681942148,0.4360689793173729,0.40053487812000754,0.4017888772513586,0.474327564470272
0.42774047005009286,0.41498046394372823,0.44099259197466717,0.45023359643406385,0.436423106808518,0.5145276843320998,0.4656373735948697,0.47220431659350187,0.43362017484949794,0.40101239996706894,0.40004579004733604,0.47391796167615785
0.4240809102864559,0.40974029593590466,0.4351146202546852,0.4480674453499045,0.4361618755919467,0.511412086430407,0.45874567745984535,0.4717324941303501,0.43019421294329824,0.40062837694376985,0.3973466526331987,0.47245313231049274
0.4195365048309448,0.4036388715088552,0.4284550287852715,0.4448906939802758,0.43496112097523965,0.5073076879250467,0.4510378483784047,0.4703012769335353,0.4257738370892568,0.39933320842929143,0.3937079829111035,0.4699769336349742
0.4141103132419151,0.396692110903986,0.4210651825759121,0.4407545434940127,0.4328285478195332,0.5022283308622791,0.44251707689907605,0.46792511150080623,0.4204148432072812,0.3970694111452514,0.38918178512163637,0.46653322366398914
0.40778574708252774,0.38888287230183854,0.41299633339893715,0.4357099395117456,0.4297766211355017,0.49619253124246365,0.43319779876735753,0.46462391469888215,0.41417412126291714,0.3938824500450041,0.38381987741946677,0.46216586116461383
0.4006198643103008,0.38026699514906004,0.4042996197895236,0.4298075721058989,0.4258225660833548,0.48921796334045176,0.42315070379455555,0.46042307376345387,0.40710783941220385,0.3898208282819415,0.37767389187334716,0.4569187056566138
0.3926735720933562,0.3709091415297471,0.39502606704569215,0.4230978758006924,0.4209883679728399,0.48127961751170445,0.4124450775872786,0.45535344629918423,0.399271444001674,0.384933056838462,0.37079527446611327,0.4508356174124437
0.38400674925548167,0.3608728059520858,0.38522658722831027,0.4156310295721404,0.41530077226324025,0.4724188890571641,0.4011486183927043,0.4494513602797075,0.39071965956835286,0.37926765452597094,0.3632352850946836,0.44396045745724755
0.37467824627613044,0.35022031534835046,0.3749519791610896,0.4074569568480515,0.40876176537604003,0.46269589574654746,0.38932743709857837,0.44275861404762895,0.3815064888397599,0.37287314798488114,0.3550449975700601,0.43633708756885864
0.3647458852904206,0.33901282907490377,0.36425292843058743,0.39862532550802937,0.40137295948474216,0.45216953416417155,0.3770460572332154,0.4353224763145263,0.3716852127339072,0.3657980716846114,0.3462752996173283,0.4280093702777991
0.3542664600891365,0.32731033891219685,0.3531800073862066,0.3891855478834725,0.3931993809060518,0.44089747970895654,0.36436741496549824,0.427195686160948,0.3613083903593006,0.35809096792358763,0.3369768928756563,0.419021168867281
0.3432957361187274,0.31517166906476973,0.341783675140195,0.37918678075757406,0.3843058028328097,0.42893618659442384,0.3513528591048788,0.4184364530364148,0.35042785901493867,0.34980038682924275,0.32720029289829566,0.40941634737320537
0.33188845048130794,0.3026544761612506,0.33011427756764555,0.36867792536532157,0.37475570618189824,0.4163408878486974,0.33806215110137694,0.40910845675941826,0.33909473419031433,0.3409748863580165,0.3169958291525811,0.3992387705841623
0.3200983119346585,0.28981524925435603,0.318222047306497,0.3577076273934974,0.3646112795942407,0.4031655953145023,0.32455346504558175,0.3992341582965957,0.3273594095654127,0.3316630322953551,0.30641364501993074,0.3885323040414312
0.3079780008922246,0.2767093098208914,0.3061571037575333,0.34632427698067914,0.35393341943480106,0.3894630996491663,0.31088338766865037,0.388833366952387,0.31527155701071297,0.32191339825571225,0.2955036977958454,0.37734081403898084
0.2955791694231172,0.26339081176175055,0.29396945308438305,0.3345760087172383,0.34278172979258487,0.3752849703246186,0.29710691834230873,0.37797449754543877,0.30288012658718716,0.3117745656825477,0.2843157586899094,0.36570816762346914
0.2829524412521137,0.24991274140191652,0.28170898821352164,0.3225107016453423,0.33121452248063854,0.36068155562739135,0.28327746907885193,0.3667230459431269,0.2902333465463018,0.301295123848329,0.2728994128257909,0.3536782325942442
0.27014741175965457,0.23632691749045825,0.26942548883426753,0.31017597925895124,0.31928881703604806,0.34570198265861596,0.2694468645311417,0.35514156139017805,0.277378723330014,0.29052366985452904,0.26130405924123906,0.34129487750334114
0.25721267567761974,0.22268391994768857,0.2571685299086591,0.2976192490895313,0.3070603082147667,0.33039443079871744,0.2556652414773413,0.34328977591948195,0.26436317212416965,0.2795086130858692,0.2495787903625498,0.32860215571449236
0.2441963419164405,0.20903176537065093,0.24498578099316992,0.2848884385511059,0.2945827617641637,0.31481121504780946,0.2419791803773876,0.3312270099247663,0.25123544367030987,0.26829454027790417,0.23777015159706136,0.3156477268122574
0.23114598575153783,0.19541603004295782,0.23292316418587738,0.2720319266000844,0.2819080705394676,0.2990083139203963,0.22843187890103,0.3190119487477395,0.2380458988802701,0.25692255310426215,0.22592234940662018,0.30248253884533877
0.21810817222153492,0.18188107608709508,0.22102642853132634,0.25909786252586653,0.2690868138680167,0.2830406635371974,0.2150648816415572,0.30670041571643797,0.2248442622123782,0.24543363321947548,0.21407932536738308,0.28915766095317574
0.2051284380207201,0.16847009804963647,0.20934120983690685,0.2461341400696459,0.25616827880119053,0.2669619788335335,0.2019181458328265,0.2943452875362511,0.21167953631545544,0.23386877010708312,0.20228483496959032,0.2757241630278969
0.19225129149904702,0.15522512290124468,0.19791303067285412,0.23318839742441128,0.24320046011440954,0.2508247535593276,0.18903004134926366,0.28199649428992113,0.19860000202881606,0.2222689610796309,0.19058244761756493,0.2622331157143201
0.17952021266213503,0.14218701003667084,0.18678730037224872,0.2203080172349464,0.2302300603071349,0.23468026027910405,0.1764373507058629,0.2697010194375442,0.18565321838226762,0.21067521127867145,0.17901554662971333,0.24873559040995186
0.16697765317126856,0.12939545127475408,0.17600931503101672,0.20754012659782936,0.21730248960286927,0.21857855037199,0.16417526905818727,0.25750289981656893,0.17288602259611152,0.1991285336747644,0.16762732923852514,0.23528265926498876
0.15466503634339762,0.11688897085842292,0.1656242575079289,0.19493159706143276,0.20446186594915544,0.20256845403171375,0.1522774042023681,0.24544322564179755,0.16034453008114166,0.18766994906747608,0.15646080659057315,0.22192539518231624
0.1426227571511381,0.10470492545469362,0.1556767741362463,0.18252904462592442,0.19175101501757835,0.18669758026660596,0.14077577657510565,0.23356014050538518,0.1480741344386458,0.1763404860853793,0.14555880374651292,0.20871487181750892
0.1308901822227703,0.09287950415467153,0.14618296262083103,0.17037882974326665,0.1792114702037629,0.17101231689959928,0.12970081925366833,0.22188884137684045,0.13611950746040516,0.16518118118605435,0.1349639596810839,0.195702163578831
0.11950564984224099,0.08144772847354995,0.1371386381867863,0.1585270573172163,0.16688347262737555,0.15555783056822806,0.11908573755444722,0.2104615786030245,0.12452195007549383,0.1542330786560881,0.12471872728310826,0.18293834562723532
0.10850654365156273,0.07044416440724258,0.12854396536960852,0.14701957670332533,0.15480597113212335,0.1403780667246284,0.10895094912984803,0.1993076559081525,0.11329896143894809,0.1435372306110739,0.11486537335549155,0.17047449387636487
0.09791829819768716,0.05989165193455706,0.12039821439907789,0.135888391760746,0.1430166222857547,0.1255157496355389,0.09929229022242352,0.18845343039379195,0.10245654715384173,0.13313469699561234,0.10544104760884294,0.15836168499255115
0.08774496586200017,0.04979146156994135,0.11269976119925852,0.12513654817208125,0.13155179038005863,0.11101316328960473,0.09010449424375602,0.17792231253886437,0.0919998325609785,0.12306654558331083,0.09644830480433819,0.1466494568818591
0.07798792032639396,0.04014276236219051,0.1054460873884979,0.11476901184876825,0.1204465474308655,0.09690451668958569,0.08138179051955932,0.1677347661996435,0.08193300703831419,0.11337385197678357,0.0878859637032988,0.1353502411260975
0.06864773858793849,0.030944012914495958,0.09863378027942776,0.10478983841536443,0.1097346732546794,0.08319992345851843,0.07311790428967882,0.1579083086097573,0.07225932400095719,0.1040976996076512,0.07975343415797313,0.124462823640434
0.05972420095888091,0.022192961384445486,0.09225853287896366,0.09520212947384557,0.09945050232723165,0.06990630503868192,0.06530605670809198,0.14845751038018584,0.0629811009011687,0.09527909378026835,0.07204919024284583,0.11399054649678524
0.05121629106664645,0.01388664548402406,0.08631514388830475,0.08600803260360514,0.08960594242496603,0.057029900928202426,0.05793896484290749,0.13939399549926318,0.05409971922836232,0.08693250471741135,0.06477077025463879,0.10393608178492332
0.043122195853837614,0.006021392479612683,0.08079751770293411,0.07720874136145467,0.08019981306882126,0.04457626868105391,0.05100884167636603,0.1307459033205214,0.045615624509103864,0.07904622665328218,0.05791477671231013,0.09430143161247533
0.0354393055782343,-0.0014071808080108328,0.07569866441261859,0.06880449528162325,0.0712302792711739,0.03255028390705701,0.044507396104839676,0.1225448716725263,0.03752832630711221,0.07161492933301525,0.0514768763570551,0.08508792810492481
0.0281642138127947,-0.008404168003671955,0.07101069980140891,0.06079457987575812,0.06269485153583783,0.02095614027188042,0.0384258329388325,0.1147759180438565,0.029836398223258412,0.06463267534150581,0.04545180015230578,0.07629623340561004
0.021292717445653697,-0.014975373177799907,0.06672484534763963,0.053177326632924446,0.05459038585806467,0.00979734949704001,0.03275485290297999,0.10742358641800107,0.022537477895566455,0.058092920103410314,0.03983334328373054,0.06792633967572578
0.014819816680124276,-0.021127310846426994,0.0628314282239289,0.04595011301960511,0.046913083724543274,-0.0009232586401008852,0.02748465263604942,0.10047302004254866,0.015628266999212433,0.05198851188314664,0.03461436515923491,0.059977569094321226
0.008739715034697011,-0.026867205971189287,0.05931988129717901,0.039109362479700795,0.0396584921134005,-0.011203536306331946,0.022604924690939755,0.09390996142918717,0.009104531246525216,0.04631169178489386,0.029786789408961088,0.05244857385830208
0.0030458193430399974,-0.03220299395932572,0.056178743128575716,0.03265054443453033,0.03282150349420035,-0.021042017612595082,0.018104857534681412,0.087720752353704,0.002961100386986309,0.04105409375259206,0.02534160388528804,0.0453373361824289
-0.0022692602460013672,-0.03714332066367929,0.05339565797358904,0.026568174282830304,0.02639635582794454,-0.03043791861398494,0.013973135548436832,0.08189233385598609,-0.002808131792770629,0.03620674456994265,0.021268860662831363,0.03864116829931813
-0.0072137102684036655,-0.041697542382695865,0.05095737578197218,0.020855813400754968,0.020376632567072242,-0.03939113730974894,0.010197939027500068,0.0764122462400196,-0.00821020746895907,0.03176006386040835,0.017557676038443548,0.032356712459441724
-0.011796513944966329,-0.04587572586042506,0.04884975219776294,0.015506069141876841,0.014755262655460432,-0.047902253643286694,0.006766944181296457,0.07126862907389031,-0.01325310478063976,0.027703864087212697,0.01419623053121381,0.02647994093112732
-0.01602745118131079,-0.049688648286519844,0.04705774855928217,0.010510594837186187,0.009524520528423409,-0.055972529502150925,0.003667323133383503,0.06645022118978346,-0.01794573782972139,0.02402735055334092,0.011171768882468049,0.02100615600055762
-0.019917098567881077,-0.05314779729623645,0.045565431899135006,0.0058600897950909815,0.004676026112712981,-0.06360390871804683,0.0008857439214501454,0.06194636068398341,-0.02229795668095982,0.02071912140153914,0.008470600055769075,0.015929989971771533
-0.023476829379943824,-0.05626537097043466,0.04435597494421026,0.0015442993014173761,0.00020074482651876759,-0.07079901706683198,-0.0015916295026830863,0.05774698491687425,-0.026320547361958352,0.01776716761431479,0.006078097236916241,0.011245405166663048
-0.026718813577587715,-0.05905427783557765,0.043411656115680514,-0.0024479853805909856,-0.003911012420532382,-0.07756116226851688,-0.003779137273063757,0.05384263051293961,-0.0300252318631678,0.015158873013936466,0.003978697833945874,0.006945693924981729
-0.029656017805724216,-0.061528136863731965,0.04271385952900232,-0.006128927010272327,-0.0076695892273759125,-0.08389433398726462,-0.005691623609607916,0.05022443336076201,-0.03342466813788653,0.012881014262434189,0.0021559034771309847,0.003023478604332816
-0.032302205394086986,-0.06370127747256765,0.042243074993915934,-0.009511642369546866,-0.011085983701509807,-0.0898032038313908,-0.0073444368180998545,0.046884128613024004,-0.03653245010226014,0.0109197608615988,0.0005922800189812408,-0.0005292884198228077
-0.03467193635723229,-0.06558873952535811,0.04197889801444518,-0.012610202262917217,-0.014171848458994286,-0.0952931253533634,-0.008753429290192419,0.04381405068650726,-0.039363107635281905,0.00926067515298247,-0.000730542465756847,-0.003721324754168878
-0.03678056739453843,-0.06720627333098014,0.04190002978889825,-0.015439631517467852,-0.016939490624452318,-0.10037013404980372,-0.009934957503406313,0.04100713326209285,-0.041932106578792386,0.007888712317898824,-0.001831869680099997,-0.00656201798753369
-0.038644251890206614,-0.06857033964391394,0.04198427720986669,-0.01801590898286568,-0.019401871831068937,-0.10504094736148503,-0.010905882021131116,0.03845690928476154,-0.044255848737479814,0.0067882203774225006,-0.002731943104828112,-0.009061425690889635
-0.04027993991326009,-0.06969810966424315,0.04220272183741755,-0.020355967531359466,-0.021572608220592128,-0.10931296467333342,-0.011683567492624272,0.03615751096359326,-0.04635167187887969,0.005942940192389098,-0.003451939998484598,-0.011230275417353906
-0.04170537821754465,-0.07060746503765492,0.042523659882711916,-0.02247769405778004,-0.023465970443332044,-0.11319426731442774,-0.01228588265301184,0.03410366977176743,-0.04823784973337489,0.005336005463395932,-0.004013973397375806,-0.013079964702187905
-0.042939110241728765,-0.07131699785543957,0.04296431588204742,-0.024399929479540734,-0.02509688365816109,-0.11669361855799945,-0.012731200323288165,0.032290716446562895,-0.04994616765595672,0.004949942730801318,-0.004441092115571314,-0.014622561062797794
-0.04400247088844568,-0.07184607276180122,0.04354652719144292,-0.026142469510029676,-0.026480927532514544,-0.11982046362143225,-0.013038382351582063,0.030714580989358198,-0.05148043970057269,0.00476667137472447,-0.0047572807449043665,-0.015870801998733666
-0.04494208667569667,-0.07224494618081213,0.044291988879053536,-0.027737822868268324,-0.02763433624238987,-0.12258492966626308,-0.01320379885892926,0.029371792665630822,-0.05281611267681223,0.0047675036150462285,-0.00499326013432479,-0.016838094991690755
-0.04574784224719325,-0.07252183267246294,0.04522225372517,-0.029190507570824514,-0.028573998472347043,-0.12499782579818088,-0.013204711291452533,0.02825948000495815,-0.053928583711134286,0.004933144511408374,-0.005179708944533082,-0.017538517505508104
-0.04638991352769771,-0.07264315844462796,0.046358732222219354,-0.030479662890824464,-0.029317457415508574,-0.12707399303405748,-0.013018015735297192,0.027375370801016652,-0.05479320354069753,0.005243691963214055,-0.005302614637345351,-0.01798879363569094
-0.04683915864376497,-0.07257647156576072,0.047722692574764414,-0.031584293256065335,-0.02988291077355933,-0.12880811981700896,-0.012620521209088485,0.026717792111582477,-0.055385276513359886,0.005678636709627507,-0.005344264966834114,-0.018193221142866374
-0.04706711792374355,-0.07229044196489345,0.04933526069950383,-0.03248326824901595,-0.030289369894446673,-0.1301711995847693,-0.011988949663932236,0.02628567025853107,-0.055680060587678985,0.006216862329574212,-0.005286916109254709,-0.018126917130858948
-0.047046013897774346,-0.0717548614316371,0.05121742022527258,-0.03315532260681608,-0.030557926454116063,-0.1311337824652361,-0.011099935983414376,0.026078530827837273,-0.055652767332912176,0.006836645241741025,-0.005112792663045131,-0.017763160964509528
-0.046748751297791644,-0.0709406436161816,0.05339001249304121,-0.03357905622127693,-0.03067838669531656,-0.13166626944751553,-0.009930027983601276,0.026096498669575446,-0.05527856192901627,0.007514350368499657,-0.004804087648826418,-0.017075091656943046
-0.04614891705752258,-0.0698198240292959,0.05587373655591644,-0.03373293413888085,-0.030628932229841848,-0.13173891238192334,-0.008455686413039624,0.026340297897919432,-0.054532563166647334,0.008244346890130882,-0.00434296250940247,-0.016035707869568722
-0.04522078031618592,-0.06836556003082422,0.05868914923283833,-0.03359528657996682,-0.03038758608753452,-0.13132181415289135,-0.006653284912300523,0.026811251845994234,-0.05338984349779692,0.009043723684043752,-0.00371154702649858,-0.014617868018285664
-0.043939355545493705,-0.06655193447829486,0.06185758166206415,-0.03314463640682554,-0.02993250078215163,-0.13038788000878362,-0.004498419477000531,0.02750694927781882,-0.051826293323925715,0.0099315318416935,-0.0028905181445652225,-0.01279610308540275
-0.04228056316379248,-0.06435345614973872,0.06540347128976465,-0.032360532301337064,-0.029242691237838757,-0.1289203266353985,-0.0019641515233841467,0.02842655292554537,-0.04982082000574535,0.010931261025731852,-0.0018554840697497833,-0.010551228960108357
-0.04022105533641231,-0.06174560157749023,0.06935183263071726,-0.031222645113197268,-0.028297239868241366,-0.12690453792923664,0.0009770865673710133,0.029619385406280584,-0.04735296285070778,0.012067489184169548,-0.0005809060210691906,-0.007865343964258469
-0.0377381664304767,-0.058704969154462376,0.0737275379118344,-0.029710510846773296,-0.027075070488177012,-0.1243257486480075,0.004352949481606961,0.03113700488756163,-0.04440221477696472,0.01336492967502639,0.0009587863602765808,-0.004720406067993066
-0.03481000096303643,-0.055209384207857155,0.07855520949314523,-0.02780345524817184,-0.025554776909537523,-0.12116909715982721,0.008191101494650016,0.03302697478603534,-0.04094800920726764,0.014848452639706897,0.002789239217085463,-0.0010982758296096806
-0.03141579548797842,-0.05123833135398667,0.08385877720418207,-0.02548028349788397,-0.0237139176517493,-0.11741984249436871,0.012518897663961675,0.0353332129537317,-0.0369696661402985,0.016543172949662722,0.004936356374701674,0.003019106916457067
-0.0275356122006499,-0.046772588440494464,0.08966185312980646,-0.022719542935787193,-0.021529613082615955,-0.11306318057421161,0.01736365375032665,0.038095696035814766,-0.032446437809947756,0.01847437574542145,0.0074261453346877605,0.00764987265438118
-0.023150195559959716,-0.04179405524939932,0.09598790699145991,-0.019499646003465196,-0.018978824850730883,-0.10808415822019188,0.022752772527633674,0.04135032112461696,-0.027357530051600576,0.020667481592530984,0.010284645207470558,0.012812292189893933
-0.018240972226610107,-0.03628575342329937,0.10286026622271968,-0.01579887029717246,-0.01603835600585939,-0.10246767311435467,0.02871374383729109,0.045128905700037455,-0.02168210231134171,0.02314804646654809,0.0135379266812942,0.01852477668044272
-0.01279005106309608,-0.030231826465371342,0.11030211596929929,-0.011595358567835359,-0.012684850998939377,-0.09619847379995436,0.03527414458822711,0.049459187629542566,-0.015399267645955145,0.025941761753038126,0.017212092022219835,0.024805877635190793
-0.006780223133705618,-0.02361753973937078,0.11833649908904775,-0.006867118721051481,-0.008894795682080757,-0.08926115968145404,0.0424616387568895,0.054364825168165556,-0.008488092722925035,0.02907445424757607,0.021333275074125774,0.0316742869150169
-0.00019496170451981792,-0.016429280469632344,0.12698631615195038,-0.0015920238170890957,-0.004644517308565995,-0.0816401810245262,0.050303977387245624,0.059865396958506775,-0.0009275978204345212,0.032572086155745236,0.025927641258707508,0.03914883673251603
0.006981577756586747,-0.008654557741069713,0.1362743254401278,0.004252187929111202,8.981546715022479e-05,-0.07331983895605283,0.05882899859078205,0.06597640203073324,0.007303243172632867,0.03646075509313805,0.031021387575477184,0.04724849965199861
0.014764557579947851,-0.00028200249917453846,0.14622314294783828,0.010687913147939015,0.005332192589441452,-0.06428428546412396,0.06807854162111251,0.07270925980257964,0.016225502756695563,0.04076669408535624,0.03664074260176552,0.05599238858949149
0.023168457894102976,0.00869863244998166,0.15686027399685853,0.01773768331511158,0.01110676260150829,-0.05451752339803978,0.07815381663787256,0.08007131007934722,0.025860299821471228,0.04551627156800997,0.04281196649271895,0.06539975681273662
0.03220707662579899,0.018296472439748808,0.16819995168614651,0.02542416475167507,0.017437832645379403,-0.04400340646830901,0.0889668539407157,0.08806581305390412,0.0362287996459783,0.0507359913867186,0.04956135098130147,0.07548999794119235
0.04189352949998974,0.028519520942897884,0.18013277005616193,0.03377015862400448,0.0243498684619112,-0.03272563924664959,0.10039247049745767,0.09669194930668587,0.04735834938903129,0.056452492797110385,0.056915219378294205,0.08628264594603244
0.0522402500398361,0.039374659571621035,0.19253236350814162,0.042798600943803576,0.031867494390787614,-0.020667777165988666,0.11230690646678528,0.1059448198056946,0.05923202762818573,0.06269255046482253,0.06489992657229571,0.09779737515014693
0.06326422084361344,0.05086764807753168,0.20527343717360502,0.052533159648647104,0.04001549337052055,-0.007781130344260326,0.12458782519825606,0.11581544590649986,0.07173458892446391,0.06948307446550114,0.07354185902972113,0.11011379703859059
0.0749747173871517,0.06302312887346581,0.21823176691435525,0.0629874543524332,0.04881880693844945,0.006058886838136421,0.13711431323229822,0.12629076935223793,0.08474473358722276,0.07685111028480131,0.08287177613028325,0.12330426156674948
0.08724572661775859,0.07577605619400556,0.2312841993224792,0.07407880662353836,0.058302686224557546,0.020721288617125827,0.14976688030021162,0.13735365227361201,0.09814096812353827,0.08482383881838691,0.09285018777466315,0.13721877399017532
0.09993208739593656,0.08896736518060253,0.24430865172034638,0.0856986786106115,0.0685961399513011,0.03604494573889325,0.1624274593241663,0.14900235469846884,0.11180160523820555,0.09342857637193104,0.10336785862003167,0.1517032513384494
0.11289204430887884,0.10244258087315411,0.2571841121606103,0.09773738466085737,0.07969197716263685,0.05187350937232996,0.17497940641720353,0.16125785500589357,0.12560476383373942,0.10277818041514888,0.11431404440633479,0.1666078780187579
0.12598724767047054,0.11605248986857852,0.2697906394262081,0.11008409132003613,0.09143974106611856,0.06805541110903404,0.18730750088323544,0.17396696056486577,0.1394283690103735,0.11287845929988544,0.12557754051890427,0.1817871058158918
0.1390827535212878,0.1296531403208151,0.2820093630303597,0.12262681733246335,0.10369307982324452,0.08444386296331038,0.19929794521704539,0.18696158536536153,0.15315015206606145,0.12359401131654643,0.1370466819884574,0.19709965389224707
0.15204702362859787,0.14310584194082457,0.293722483216569,0.13525243364101092,0.11630974654945682,0.10089685737216925,0.2108383651042871,0.20008017816639687,0.16664765049647548,0.13479258227323226,0.14860934349109722,0.2124085087878234
0.16475192548635992,0.1562771659965889,0.30481327095862343,0.1478466633871055,0.12915159931414175,0.11727716719532821,0.2218178094214857,0.21316772249602745,0.17979820799500745,0.1463450707134848,0.1601529393483122,0.22758092442022648
0.17707273231522386,0.16903894531311098,0.315166067960593,0.16029408191072966,0.14208460114063046,0.13345234571521108,0.232126750236037,0.226075736651349,0.19247897445276843,0.15812552791628762,0.17156442352697623,0.2424884220846658
0.188888123062531,0.18126827427241504,0.3246662866568319,0.1724781167504217,0.15497882000619728,0.1492947266369481,0.24165708280620737,0.2386622736984967,0.20456690595858879,0.1700111578960661,0.18273028963934912,0.25700679045395625
0.2000801824023143,0.19284750881354681,0.33320041021197777,0.1842810476432753,0.16770842884206158,0.1646814240883758,0.25030212558113524,0.25079192147264584,0.21593876479901836,0.18188231740268712,0.19353657094307591,0.2710160855785169
0.2105344007352975,0.20366426643257282,0.34065599252095125,0.1955840065249398,0.1801517055333867,0.17949433262003747,0.25795662020082855,0.2623358025780115,0.22647111945832638,0.1936225159214599,0.20386884034118755,0.2844006308863721
0.22013967418889596,0.21361142618258092,0.3469216582089566,0.2062669775296201,0.19219103291928036,0.19362012720518246,0.2645167314961672,0.2731715743878484,0.2360403446185007,0.20511841567313466,0.21361221038210004,0.2970490171831504
0.22878830461721666,0.2225871286736802,0.351887102631482,0.21620879699007695,0.20371289879279378,0.2069502632397668,0.26988004748890165,0.2831834290444509,0.2445226211592494,0.21625983161390394,0.2226513332596158,0.30885410265208557
0.2363759996010571,0.23049477607300084,0.35544309187429807,0.22528715343762634,0.21460789590092344,0.21938097654245306,0.2739455793916531,0.2922620934591538,0.2517939361579991,0.22693973143540172,0.2308704008129219,0.31971301285401554
0.24280187244790666,0.23724303210469438,0.3574813478990274,0.23337858760213998,0.22477072194460937,0.2308132833546097,0.27661376160791395,0.3003048293123313,0.2577300828898961,0.237054235564704,0.23815314452659161,0.3295271407273838
0.247968442191946,0.24274582204993353,0.3579016111933172,0.2403584924120451,0.23410017957873572,0.24115298034031235,0.27778645173204725,0.3072154330533973,0.2622066608278058,0.24650261716432795,0.24438283553058388,0.3382021465882378
0.25178163359404676,0.24692233274691217,0.35675233376923665,0.24610111299432438,0.2424991764121314,0.2503106445863426,0.27736693263968426,0.3129042359008058,0.2650973883761776,0.2551873021322332,0.2494422846002424,0.3456479581302301
0.25415077714177225,0.24969701259084523,0.3541403988873105,0.2504795466745169,0.2498747250075691,0.2582016336021889,0.2753098678075502,0.3172881038420503,0.2663407340715064,0.2630138691018204,0.25321384215629733,0.35177877042461797
0.2549886090493771,0.250999571533969,0.35017439314970067,0.2533654905645066,0.2561379428817658,0.26474608532004545,0.27171889189578663,0.3202904376336643,0.26600528341201213,0.26989104944193265,0.2555793982648639,0.35651304592026317
0.25420358352331385,0.250764943366865,0.3449646065002046,0.25468665693152526,0.26120405250538287,0.2698689180948131,0.26672255355754787,0.3218411728012213,0.2641745551045477,0.2757307272568543,0.2564253639257276,0.3597735144436324
0.2518050651173561,0.24892064367792405,0.3386230322242564,0.2544858127582106,0.2649923813030258,0.2734998307040996,0.26044914034504574,0.3218767796393342,0.26093612250823506,0.2804479393863119,0.25574785553901247,0.3614871731987975
0.2479168164618856,0.24553788057740258,0.331263366948926,0.25282313772752024,0.26742636165324407,0.2755733023482191,0.2530266787095496,0.320340263211656,0.2563816136344651,0.28396087540547305,0.25362065979716003,0.36158528676743423
0.24266425046435433,0.24076104413093713,0.32300101064292,0.24976508814678067,0.26843353088853183,0.2760285926501916,0.2445829340013867,0.31707522301400765,0.2506067111468975,0.2861908776249475,0.25012332696872974,0.36000338710882346
0.23617187723222083,0.23473132252513584,0.31395306661658073,0.2453843969476876,0.2679455312953269,0.2748107636399988,0.2352454104699414,0.31168261276508413,0.24371115236146088,0.28706244109078666,0.24534044135790178,0.35672577107470643
0.22856330407295022,0.22758670206757786,0.30423834152188717,0.23976007368630523,0.2658981101140117,0.2719522676418861,0.22514135126365573,0.30440055583287073,0.23579872924635267,0.2865032135844841,0.23936162130447622,0.3518850395746375
0.21996123549401408,0.2194619671868141,0.29397734535245423,0.23297740454306728,0.2622311195389131,0.2676021931427084,0.21439773843002927,0.2955246094951108,0.22697728842203935,0.2844439956229743,0.23228151918387352,0.345626491301392
0.2104874732028911,0.2104887004323665,0.2832922914435333,0.2251279523227762,0.25694166368024557,0.2619099964549046,0.20314129291561953,0.28533013487512826,0.21735873116125626,0.2808136909008783,0.224199821407134,0.3380916804082954
0.20026291610706623,0.200795282474729,0.2723070964720119,0.2163095564546036,0.25017152714130075,0.25502012864169415,0.1914984745660412,0.27407229694182755,0.20705901338900748,0.27550681714818187,0.21522124842091864,0.32941874929009934
0.1894075603140309,0.19050689210536623,0.2611473804564137,0.20662633299208982,0.24206848020409,0.24707203551707568,0.1795954821259666,0.2619860645096935,0.1961981456825662,0.2686622790754512,0.20545555470750873,0.31974242858298146
0.17804049913128334,0.1797455062367147,0.24994046675689863,0.19618867461314465,0.23277710102370347,0.23820015764582775,0.16755825323912577,0.24928621023879133,0.1849001932714744,0.2604830155574616,0.1950175287848051,0.3091940371645451
0.16627994722955944,0.16862988886240746,0.2388152308603633,0.1851132022030816,0.22243894170776843,0.2285343144001403,0.1555123464939344,0.23616740468774375,0.1732932803947045,0.251161348796096,0.1840267323481058,0.2979017654460465
0.15424366942831857,0.15727539515238245,0.2278994170160425,0.1735219056776393,0.21119326042542952,0.2182065191867795,0.1435808482794811,0.22280588531864565,0.1615096676201014,0.2408779768325187,0.1726028712443167,0.28599570249787265
0.14204893002007815,0.14579399460574413,0.21731995536675708,0.16154224552411764,0.19917693488364255,0.20735017399498776,0.1318846201620572,0.20935925924706958,0.14968574270644774,0.22980209261630713,0.16086634254961393,0.2736072419227902
0.12981210448071373,0.13429444845380936,0.20720539188834122,0.1493079308351084,0.1865237993607582,0.19609389781978173,0.1205441943463793,0.19596499186297506,0.13796195058630012,0.21809229634311172,0.1489424264161741,0.260864529507252
0.1176486654861075,0.12288231604886685,0.1976859758982662,0.1369589473275718,0.17336462083132692,0.18456130440695845,0.10967984193622227,0.18274035240190223,0.12648279084448427,0.20589662831037672,0.13696143703179395,0.24789229927913692
0.10567318291214778,0.11165995486417606,0.1888852688006612,0.12464155734283781,0.15982709896609987,0.1728710022530937,0.09941157293441777,0.16978241394497123,0.11539681771809444,0.1933525689173398,0.12505872261989037,0.23481187350775012
0.09399932383473009,0.10072652049396857,0.18082101455862032,0.11250829984660492,0.1460358661320277,0.16113659460554378,0.09003023211022908,0.1571680534188827,0.10486816119689116,0.18058703866503203,0.11337466543950057,0.22174116270382224
0.08273985252975628,0.09017796665344681,0.17342159446160801,0.10071799042894125,0.13211248739226103,0.14946667946244463,0.08167584314760734,0.14495395159591765,0.09510821655806445,0.16771639815627848,0.10205468178528193,0.2087946656195105
0.07200663047313478,0.08010704517878503,0.16658592015990684,0.08950123537647992,0.11817546050615094,0.13796484957271174,0.07405755185746275,0.13317659309393778,0.08605611582117104,0.15484644809569775,0.09124922198751173,0.19608346924839762
0.061911159780707915,0.07060330602712836,0.160184501272308,0.07914548768143631,0.10434021592924822,0.12672969243604038,0.06689554263879367,0.1218522663763848,0.07758108882513912,0.1420724292897021,0.0813608136598035,0.18371524882549267
0.052548588933246806,0.06175430371080101,0.15405944538611144,0.0695303628710435,0.09071911681330345,0.11585479030290573,0.059925487446859174,0.11097706375228109,0.06954160353085556,0.1294790226464971,0.07270768337695471,0.17179426782723023
0.04384885483203454,0.05363916439457989,0.14802445805712444,0.06050097105925409,0.07742145900626782,0.10542872017456237,0.05289854579317864,0.10052688137622925,0.06178536602116563,0.11714034917608224,0.0649724828738355,0.16082178197278588
0.035675037598220785,0.0461360103969127,0.141864842809664,0.05190261314454548,0.06455347105229217,0.0956090950556753,0.04558136474553215,0.09045741924841233,0.05414932050087316,0.10511996999025083,0.05785138923706476,0.15123710205726704
0.027867250625651756,0.03904863294449999,0.1353375011365548,0.04358078080991818,0.05221831419172747,0.08674527839976597,0.03775607892796058,0.08070418121459397,0.046459649296740346,0.09347088630258932,0.05106524527099639,0.14244530913045703
0.020242640580869983,0.032164229111574655,0.12817093249913017,0.035381156522897174,0.04087414870050002,0.0785191064388433,0.029220310520765146,0.07118247496611807,0.03853177285748785,0.08223553942847828,0.04435955949771904,0.13390142812647107
0.012595387403114888,0.025253401819902696,0.1200652343272317,0.027149613535530914,0.030915706339276407,0.07054570487022652,0.019787169260507827,0.06178741203990869,0.03017034975379499,0.07144581078509132,0.037504506157056645,0.12513318230583712
0.004696704304322598,0.018070159838782386,0.11069210201920959,0.018732215884391883,0.021811543280375427,0.06247657810395849,0.00928525244001098,0.05239390781847053,0.02116927667829939,0.06112302189139639,0.030294925206568235,0.11574099325549686
-0.003705162230874519,0.010351917785044962,0.09969482894192222,0.009975218390576635,0.013070478485268745,0.05399960926280601,-0.0024413550916421063,0.0428566815298891,0.011311688445597151,0.05127793436815435,0.022550322321547665,0.10539798088880567
-0.012884932445146852,0.0018194961230543916,0.08668830643073683,0.0007250666597055713,0.0042614862657622266,0.04483906018225979,-0.015533080929107827,0.0330102562478293,0.0003699579922428536,0.041910749937920336,0.014114868895024005,0.0938499634455319
-0.023140293308468847,-0.007822878835293045,0.07125902378952856,-0.009171602918077379,-0.004986303716002817,0.03475557141053434,-0.030114865110781854,0.022668958891537583,-0.011894303623250252,0.03301111042504262,0.004857402037761191,0.08091545749185787
-0.034791898518117634,-0.018887574930567978,0.05222897362796458,-0.019867963168103922,-0.014983606447550146,0.023546162208568013,-0.04629616011879925,0.011626920225839948,-0.02573024722041084,0.0245580977556634,-0.0053285754217415595,0.06648567792037913
-0.04818336849867414,-0.03170355415580839,0.030228095058112026,-0.03151699613118219,-0.02598098156606895,0.011044230550023038,-0.06417093087903449,-0.00034192513885727624,-0.04139778549680859,0.016684387361428844,-0.016524894937250373,0.05052453795010475
-0.06368129040202249,-0.04661637265652012,0.008254025910534396,-0.044271493063596096,-0.03816883335841296,-0.002880446878714412,-0.08382056167834315,-0.013483838746566463,-0.059167593028055285,0.00981083527307633,-0.02878872224479601,0.03306864912645726
-0.08167653545215828,-0.06399555592894317,-0.010925097241659076,-0.05828405443710598,-0.05167741076110134,-0.018321714678534367,-0.10523867150434547,-0.02806527829571984,-0.07933838642197658,0.002867401108251188,-0.04215255736267423,0.014227321321272558
-0.10212491273637278,-0.08390077711859578,-0.02478782232799348,-0.07370708993894809,-0.06657680736031844,-0.03533703873760297,-0.12571670071722973,-0.044372897639170204,-0.10215267403028186,-0.005172686239344009,-0.05662423459144598,-0.005817437267199639
-0.12360220690607668,-0.10494073169223891,-0.03105938178062828,-0.09069281847183389,-0.08287696139191247,-0.053947506231361776,-0.14181118999324213,-0.06271354678418806,-0.12507411615130404,-0.015066195372337082,-0.07218692251393585,-0.026810920114295693
-0.14437427107559514,-0.1253746995979737,-0.02771169253435843,-0.10939326815395378,-0.10052765574139919,-0.07413782562253061,-0.15049385080600589,-0.08341427189246628,-0.14496122616988186,-0.027299892389687767,-0.08879912399523678,-0.048425722368940806
-0.16262671254989935,-0.1433973271321949,-0.012963356026611889,-0.1299611494217276,-0.11941851794395755,-0.09585632666110352,-0.14915156542651387,-0.10698275921517465,-0.15898528091678996,-0.04209054088668519,-0.10639467618270333,-0.07026174085364414
-0.17646489282461175,-0.15713862693959582,0.014720341802548498,-0.15168406945083227,-0.13937902018443143,-0.12021041907683563,-0.13558638692313385,-0.1322368447474308,-0.16463032066874353,-0.059384901954949595,-0.12488600352684817,-0.09184617406450261
-0.18391392758600417,-0.164663978013167,0.0566274305104256,-0.1715660490715376,-0.1601784792973308,-0.14538012103334547,-0.10801553916160699,-0.1556156643557421,-0.15969314914839736,-0.07885973418243172,-0.1436141079503656,-0.11257105199650147
-0.1829186867109988,-0.16397412569419634,0.1137992551516874,-0.18653664512444873,-0.1815260567668299,-0.16684261214557816,-0.06507141680504809,-0.17386032482709013,-0.1422833335243458,-0.099921793653413,-0.15917680203171436,-0.12974023110020216
-0.171343794267167,-0.1530051816722689,0.18703047627836797,-0.19387227644852661,-0.20307075872676839,-0.18072708360618767,-0.005801585313945378,-0.18411965803047933,-0.11082320441112284,-0.12170783394850573,-0.16791239723349385,-0.1394362399257224
-0.14697362851273035,-0.12962862398526695,0.2768690699398667,-0.19119622388108862,-0.22437866284719502,-0.18381877210340938,0.07033121905383967,-0.1839502209169372,-0.06404785586920181,-0.14308460614465252,-0.166723344905678,-0.13836872879305775
-0.10751232189656025,-0.0916512970193704,0.3836163276829482,-0.17647863025780802,-0.24304089908293802,-0.17355895982106015,0.16344908924307153,-0.17131629551951405,-0.0010051454049957772,-0.162648858815127,-0.15307623628561562,-0.1239060576707984
-0.05074404244136805,-0.03681901271366474,0.5073321191007064,-0.1480365004127142,-0.25516879566284145,-0.14804497443853817,0.27325894740114176,-0.14458988895328329,0.07894430602914271,-0.17872733802953303,-0.1250018024980299,-0.09407529617612902
0.024227736254967203,0.03639856593529725,0.6464858945608081,-0.10453370117819297,-0.25743150508724394,-0.10603018913082327,0.39905254487806807,-0.1025507334153413,0.17612711403492162,-0.18937678735380542,-0.08109491455501874,-0.047562223574828616
0.11744921205250852,0.12790202977966494,0.7921527499584585,-0.04498096138498574,-0.24710787853253147,-0.04692402256847647,0.540353043340245,-0.04438628618480723,0.2905571307681093,-0.19316180621551599,-0.020514583356054886,0.016288671218728866
0.2277473636379356,0.23643943370591444,0.9342714839205304,0.03126412813780943,-0.22208646585113734,0.029208061082359314,0.6898878191580902,0.030308270377176545,0.4228817575239998,-0.18913302757101397,0.05701604031201461,0.09747418964157499
0.3526201226811686,0.3595361271651493,1.063917097004228,0.12449711456273885,-0.18086551557154215,0.12164455215996056,0.8355876341719753,0.12153002882744456,0.5698111060135916,-0.17290658882131127,0.15120966577496797,0.19533242348214733
0.4882363738353691,0.49349475417310174,1.1733007916970877,0.23466668306399213,-0.12255297489827317,0.22900789550702158,0.9671558525352955,0.22886835664080946,0.7191585182774215,-0.14096435499021437,0.2612148624712083,0.3085427548802883
