I,II,III,aVR,aVL,aVF,V1,V2,V3,V4,V5,V6
1.0383378432911086,1.1148110217805527,1.0968450536129364,1.0869556430896772,1.063167798446621,1.0935273468391045,1.0210745418883462,1.0652385063830832,0.9838302655903769,1.06238038200321,1.1074482015889462,1.0852063312116496
1.0237134504295207,1.0993970055172366,1.0819366072006058,1.071828893280761,1.0487753189090936,1.0786370323408467,1.0060512973721707,1.050384975170287,0.9686987836464254,1.0477953190721394,1.092492415674086,1.0698385074797452
0.9859148684786442,1.0594541763400027,1.0433830547694949,1.032687523352564,1.0116346421386495,1.0401183054856027,0.9672744513568204,1.0119461911531566,0.9295430402656115,1.0101532046109223,1.0537981845719637,1.0300552466731485
0.9268723697582948,0.9971729212092165,0.9831880375290847,0.9715985812943766,0.9535730524562266,0.9799825906501433,0.9067022414916279,0.9519535214185444,0.8684996031513874,0.951342000754496,0.9934046901127417,0.9680213330082966
0.8499611770483911,0.9162123528541174,0.9048168411313168,0.8921001863907144,0.877867201197829,0.9016960893939614,0.8277961732459592,0.8738812813941533,0.7891652095502751,0.8747120631404027,0.9148076412498287,0.8873807444569063
0.7585893287937318,0.82026718104443,0.8117683531946466,0.7977647317764648,0.7878260331857585,0.8087585835219403,0.7340515962773442,0.7812374332821534,0.6951715850996008,0.7836465680296808,0.8215366134635377,0.7918129062171185
0.6561967605296043,0.7130676450175016,0.7075744273457761,0.6921984718419185,0.6867890530604285,0.7047028790514034,0.6289964484012031,0.6775631928980805,0.5901853141265494,0.681560158375533,0.7171546110629778,0.685032559881154
0.5462553048817842,0.5983795134783051,0.5957998832196525,0.579041522232772,0.5781263252803652,0.5930948062121184,0.5161912555908498,0.5664330296708391,0.4779078396481669,0.5718989438233247,0.6052580671860579,0.5707897634353163
0.4322686915665358,0.4800040845994338,0.4800425064594704,0.4619678598501259,0.4652384741222052,0.4775332194462943,0.3992291319774889,0.45145466664270123,0.3620754633713579,0.4581405007105853,0.4894768437994836,0.4528698912599898
0.31777254739061156,0.3617781860211062,0.36393304871666843,0.34468532285048537,0.35155668368069837,0.3616499974085827,0.28173577985021714,0.3362690804693062,0.24645934569288508,0.3437938720670083,0.3734742316987582,0.3350936341296395
0.20633439625125313,0.2475741748511637,0.2511352276509324,0.23093561064576065,0.24054269786870602,0.24911004296607758,0.16736948965602358,0.22455050141966187,0.13486550569937264,0.23239956761445044,0.260946950508184,0.221316999212813
0.10142668027902113,0.14096767113101213,0.14518063682234122,0.12428735189172849,0.13562056182472193,0.14343477720362113,0.05971622553601054,0.1198009104975819,0.030841581651455063,0.1274372503622312,0.1554264044634961,0.11513397623551233
0.005112807309978366,0.04378131951457127,0.048088071020876276,0.02670942210613753,0.03900339374504638,0.04661495505865395,-0.03902345092501652,0.02394888681347739,-0.06377136281544633,0.03107202561583512,0.058870595066274164,0.01840945298107438
-0.08153397499425713,-0.04290503508097644,-0.03906184089433296,-0.06071326733224512,-0.048219439865385655,-0.04027341117685179,-0.12773363481670927,-0.06194061799863622,-0.14790623234838057,-0.05560766631400921,-0.02764619177427393,-0.067775457381336
-0.1576988890099662,-0.11829156056811875,-0.11545183494407277,-0.1371641404009084,-0.12522046952997362,-0.11641732776269391,-0.20556716117778934,-0.13706608293413025,-0.22077069438571578,-0.13177518967708374,-0.10331481377230577,-0.14261801120261217
-0.22282277056927177,-0.18186051341657739,-0.18052824331797884,-0.20209681334333765,-0.19141829761405812,-0.18126768761762077,-0.2719385081683397,-0.20089129842529627,-0.2818495452890832,-0.19685674423087834,-0.16759294956947157,-0.20559622971593472
-0.2766020689601383,-0.23337623865330726,-0.2340009943745357,-0.25523509466901395,-0.24647759832492128,-0.234539270319333,-0.3265237970698041,-0.2531453663413448,-0.3309047103433776,-0.2505313652405896,-0.2202050987349144,-0.2564688990367714
-0.3189888469263723,-0.27288516986249645,-0.2758436126410765,-0.2965729851534143,-0.29030911771178586,-0.2762107421044813,-0.36926079228498715,-0.29382269998840593,-0.36797524375675644,-0.2927309234791221,-0.26114258176526883,-0.2952755701628764
-0.35019078066762216,-0.3007158291855667,-0.3062932188137838,-0.32637467783801194,-0.32306967366581646,-0.30652465586866856,-0.40034890133805445,-0.3231830241095296,-0.3933773286606411,-0.32364012522708685,-0.29066354008466294,-0.3223365589742914
-0.37067115983937754,-0.317478827321173,-0.3258505297576885,-0.34517455803027625,-0.3451621559201184,-0.325987451166448,-0.42024917487453234,-0.34175137488468504,-0.4077042771097156,-0.3436965122728031,-0.3092929360447163,-0.33825294623334484
-0.38114888755297116,-0.32406686352520414,-0.33527985850667147,-0.3537772033036723,-0.35723552604973885,-0.3353694542113245,-0.4296843066613087,-0.35031809993076163,-0.4118265300819274,-0.3535904619122975,-0.3178225529245421,-0.34390657758465243
-0.38259848037557587,-0.321654725610782,-0.3356091142634614,-0.35325738349766145,-0.36018481747166586,-0.3357048778757545,-0.4296386335866314,-0.3499388583015674,-0.4068916574784873,-0.3542651869493033,-0.3173109949307448,-0.34046006355511643
-0.3762500683302084,-0.31169928994826174,-0.3281298023996374,-0.34496006071770097,-0.3551511354448288,-0.3282918216911449,-0.4213581356601101,-0.3419346204878306,-0.39432435812386935,-0.3469167356952618,-0.3090836871974225,-0.3293567795539265
-0.3635893948957253,-0.29593952146523217,-0.3143970244556258,-0.3305003893352439,-0.343521657070098,-0.31469227184785414,-0.40635043601271487,-0.32789166841719875,-0.37582645976581086,-0.3329939919693213,-0.2947328757861646,-0.3123208658725593
-0.34630920746853977,-0.2760987683067294,-0.29614440576157813,-0.3116323932919129,-0.32692264997219983,-0.296634320846048,-0.3863566630728331,-0.30952978670011727,-0.353133392527959,-0.3141782275605897,-0.2759948116911133,-0.2911101501397812
-0.3257025612742576,-0.25341041652969176,-0.27464651758595315,-0.2896132172366589,-0.3067425130794104,-0.27537624066588473,-0.3627620912970641,-0.2880799555608639,-0.3274774929107572,-0.2918312401294211,-0.25411757596496864,-0.26697289135928
-0.3029361522318737,-0.22911717107357582,-0.25110267474872017,-0.2656649035198035,-0.2841089670023151,-0.2521152851076304,-0.3367686341081649,-0.2647407280332016,-0.30009759980469275,-0.26711444930430406,-0.23030938730999478,-0.2411639843422621
-0.2790946792395143,-0.20430497947243625,-0.22660754395673338,-0.24088552284637277,-0.2601180466153587,-0.22793844494422205,-0.3095130446785623,-0.2405880568822289,-0.27208334204228873,-0.24113418885237065,-0.20565821755571304,-0.21478711239246862
-0.2551193439186258,-0.17989976552379527,-0.2021074569578181,-0.21622074790151072,-0.23572834112291946,-0.2037841039961469,-0.2819854886915437,-0.21654822944311936,-0.24436738049746595,-0.21485525566910652,-0.18110159202694567,-0.18878692956738244
-0.23180785061397544,-0.1566674292886432,-0.17840041054077144,-0.19246385335047927,-0.21176099405931012,-0.18044203913144244,-0.25502954434125735,-0.1933978676211223,-0.21772540808554416,-0.18910090977835162,-0.15742658954381628,-0.16394906067822923
-0.20981440639365126,-0.13521384709143822,-0.1561360665353617,-0.1702557158386581,-0.18889970328877687,-0.1585534202656965,-0.2293422023327121,-0.17176392789156242,-0.19277614976324148,-0.16455287433229943,-0.13526984242174972,-0.14090010128997738
-0.18964972104906164,-0.11598487152010585,-0.13581575181232852,-0.15008481399154466,-0.16769072100549962,-0.13861081036204675,-0.20547386588177688,-0.15212370129983974,-0.16998136252867424,-0.14175133561149722,-0.11511753647147165,-0.12010761772133706
-0.17168100709493556,-0.09926633142603981,-0.11779245828338332,-0.13228722841475452,-0.14854285373359255,-0.12095816543118146,-0.18382835071518172,-0.1348048134614299,-0.14964583542135776,-0.12109494302484641,-0.09730541099900948,-0.10188014704476142
-0.15613197976932291,-0.08518403192410176,-0.10227084290120847,-0.11704664169402094,-0.13172746232710342,-0.10579083453133882,-0.1646628850705171,-0.11998522456188393,-0.1319173895222053,-0.10284080910960221,-0.08201875880569147,-0.08636719708644577
-0.14308285703359377,-0.07370375439262059,-0.08930722765945816,-0.1043943383951951,-0.11737846197001398,-0.09315555976830729,-0.148088109696234,-0.10769322935682826,-0.11678687795352885,-0.08710450953137337,-0.06929242618814731,-0.07355924642632763
-0.1324703595724392,-0.06463125647339335,-0.07880959959275777,-0.09420920506424597,-0.10549232217623966,-0.08295047629542576,-0.13406807785164407,-0.09780745717196496,-0.10408818587903894,-0.0738600830841229,-0.05901081293830763,-0.06328774439808765
-0.12408771079387049,-0.05761227207168505,-0.07053761077670409,-0.08621773022726045,-0.09592806678962984,-0.07492511231358294,-0.1224202553069194,-0.09005687190307127,-0.09349823050384434,-0.06294003169016738,-0.050907872343404624,-0.05522511108914814
-0.11758463682922007,-0.05213251135622815,-0.06410257832786546,-0.07999400439044345,-0.08840727398396786,-0.06868038907121801,-0.11281552034309304,-0.08402077201600008,-0.0845369610744527,-0.05403532040017751,-0.04456711118597144,-0.04888473734067427
-0.11246736653314028,-0.04753481597901008,-0.058967484403781426,-0.07495972004011717,-0.08251407626297053,-0.06366862086432022,-0.10477816375205805,-0.07912879054667968,-0.07657000391883093,-0.04669537739317742,-0.039421589743842265,-0.043623725621378916
-0.10811965558872999,-0.04361528037432527,-0.05453021910187718,-0.07057308314885936,-0.077695160460289,-0.05930423915286555,-0.09768704052319549,-0.07485377160674705,-0.0693058271889018,-0.04032809397654552,-0.03492304006459106,-0.03914740143022304
-0.10438665714067254,-0.04034377732784071,-0.05075910999326887,-0.06687129737736791,-0.07347054799893313,-0.05558181157031407,-0.09124760275326135,-0.07123352848575855,-0.06275686691491277,-0.034585271468045076,-0.031102152167842123,-0.03546796791062528
-0.10124630430247808,-0.03758257692671262,-0.04757892759589319,-0.06373971909246111,-0.06990325823164958,-0.05241122076375519,-0.0854949307751692,-0.06815295977097882,-0.0567936767443078,-0.02952168193847228,-0.027850191584693276,-0.03245416893369367
-0.09857582382418395,-0.03520635605960896,-0.044866032888222974,-0.06105357980782395,-0.06688790433828758,-0.04966788341784142,-0.08030715399699273,-0.0654887583535687,-0.05129890920378235,-0.025018473292902098,-0.025043888307391363,-0.029987006673927584
-0.09626313035544651,-0.033102198416709784,-0.0425079386569331,-0.058699670694232535,-0.06431396202671816,-0.04723842005797474,-0.07557323461785917,-0.06312897545107288,-0.04616731569928314,-0.020967108559145617,-0.022571369396070323,-0.027959741609216632
-0.09420682644554096,-0.031169594489707002,-0.04040330949690024,-0.05657634257955321,-0.06208094375174515,-0.04502065505030653,-0.07119296762794997,-0.06097302060741992,-0.04130574651600825,-0.01726947676937718,-0.020332158978750944,-0.02627789252084138
-0.0923162025433614,-0.02932044157180426,-0.03846196181120261,-0.05459350594874291,-0.060098398715105326,-0.04292361660173764,-0.06707698080849983,-0.058931661692922174,-0.036633150818406714,-0.013837892960133928,-0.018237178251340996,-0.024859236493473373
-0.09051123699742092,-0.027479043757717474,-0.03660486381112027,-0.05267263094384911,-0.05828591286546837,-0.04086753675991818,-0.06314673473179754,-0.056927024904275925,-0.03208057665017936,-0.010595098172316464,-0.016208745477635296,-0.023633808915174512
-0.08872259605585144,-0.025582111943673904,-0.034764135516135164,-0.050746747364009984,-0.05657310889843667,-0.038783851413247764,-0.05933452276118575,-0.054892594764561105,-0.027591170934277966,-0.0074742594511882365,-0.014180575989315575,-0.022543903477397917
-0.0868916338664038,-0.023578763827413435,-0.03288304875393096,-0.04876044466545405,-0.05489964625654579,-0.03661520029087547,-0.055583471051060596,-0.05277321412324153,-0.02312017947290569,-0.004418969846375867,-0.012097782185950597,-0.021544072174987182
-0.08497039247644787,-0.021430523908187237,-0.030916027160392896,-0.04666987196150063,-0.053215221129263905,-0.034315426962699694,-0.05184753854687238,-0.050525084156164905,-0.018634946947517154,-0.001383248411868987,-0.009916873534995999,-0.020601125306176735
-0.08292160183297238,-0.019111323486758577,-0.028828646179608303,-0.0444427380225592,-0.05147956645299221,-0.03184957883936838,-0.04809151698512487,-0.048115764365562703,-0.014114916918817992,0.001668459793979546,-0.007605756571794388,-0.019694131472591747
-0.08071868212775989,-0.01660750871295755,-0.026597607519360404,-0.04205829876737457,-0.0496623712630835,-0.029193953912903157,-0.04429086368469866,-0.045524194231160685,-0.009551428392160721,0.00476145394562795,-0.005143708655095829,-0.01881406702608475
-0.07834579413326563,-0.013918013315113373,-0.02421019087428494,-0.039507088780195224,-0.047741549698477256,-0.026337103978395004,-0.04042811264802555,-0.04274115792078026,-0.00494334938019126,0.00791443135159213,-0.0025208146662539788,-0.01795629193866017
-0.0757978385130797,-0.011054356233880664,-0.02166426143656759,-0.03679092498864841,-0.045703264714141566,-0.02327982089113875,-0.0364929237244523,-0.03976927792439268,-0.00029713671750553755,0.01113943740063121,0.00026202527426635175,-0.017120652873517474
-0.07308040603767126,-0.008040470785719853,-0.018968812164311382,-0.03392317220431105,-0.04354364010674265,-0.020034144339080358,-0.032485632178910415,-0.03662255543620453,0.004368845353072054,0.014438251703007443,0.003192538679208254,-0.016318924859413688
-0.0702097753771281,-0.004898351582479563,-0.01614398782382119,-0.030928754895850685,-0.04126883641987957,-0.016623317850915195,-0.028417406067385128,-0.033326349976806634,0.009029291538321757,0.017802227864619873,0.006247055993427446,-0.015569864992178495
-0.0672128823097896,-0.001586509411653018,-0.01321494845027128,-0.02782035225889673,-0.03889505094408432,-0.013071506513890652,-0.024310246236915627,-0.029892605595203074,0.013718836857967168,0.021212293487004603,0.009410774603731215,-0.01483144309039763
-0.06408152317350214,0.001910617138784596,-0.010147950286607189,-0.024555330649983807,-0.03644670826034361,-0.009342386217203083,-0.02017583140201973,-0.02628018187262515,0.018462293702004348,0.02465223086004071,0.01272606874803886,-0.014071732788343165
-0.06078180606029623,0.005602062182937503,-0.006922127903492959,-0.021121825358992014,-0.0338994794329981,-0.005420399339981476,-0.015970116288390727,-0.02247842153358013,0.02327133809463776,0.028163829473977067,0.016205962612675068,-0.013272056785493973
-0.05730468839880832,0.009496102930198955,-0.0035279618489403985,-0.017510842708318944,-0.031226282801196086,-0.0012980084757366304,-0.011678672577695656,-0.01847917465360365,0.028156897477737794,0.031764674432085784,0.019859781386889305,-0.012414496147041463
-0.05364184437919494,0.013600259685251295,4.333545507009991e-05,-0.013714132022256995,-0.028416505938939535,0.0030315933202191715,-0.007290419974403661,-0.014275020470987332,0.0331291507108413,0.03546646410767959,0.023696115505558793,-0.011481890303889913
-0.04978566495313233,0.017921295848065684,0.003799819712590604,-0.009724185626993223,-0.02546024054543138,0.007574482530772288,-0.0027950178513082707,-0.009859267386779171,0.038197528071150996,0.039280179746523966,0.027722820649188344,-0.010457837052656233
-0.045729257833817136,0.022465217913902154,0.0077488147537045785,-0.005534238850609482,-0.022348282445076216,0.012336005177007373,0.0018171347504720714,-0.005225952964783302,0.04337071125353583,0.04321608546683631,0.031947017743910185,-0.009326692555670417
-0.041466447495965904,0.027237275473310098,0.011896912534527446,-0.0011382700230822508,-0.019072131587479706,0.017320776818208004,0.00655489912149438,-0.000369843931560334,0.04865663337053079,0.04728372825928695,0.03637509296148439,-0.008073571340974934
-0.03699177517581517,0.032241961212127565,0.01624997313720687,0.0034689995237170966,-0.015623992047449124,0.022532682551855702,0.011426396883990685,0.004713563823573249,0.054062478952337206,0.05149193798699827,0.0410126977192984,-0.0066843463023249575
-0.032300498871121595,0.03748301091148164,0.020813124769922024,0.00829210545602263,-0.011996772024992927,0.02797487701363102,0.01643900999186871,0.010028045248544643,0.05959468394682229,0.05584882738554513,0.04586474868036763,-0.005145648699188911
-0.027388593341161754,0.04296340344778861,0.025590763766884,0.013334840438173578,-0.008184083845320832,0.03364978437741286,0.021599380730711257,0.01557664612852461,0.06525893571951948,0.060361792062954875,0.05093542775333448,-0.0034448681567473376
-0.022252750106732538,0.0486853607927534,0.030586554588335833,0.018600254132614458,-0.004180243958844207,0.03955909835527859,0.026913411717776406,0.02136168308592793,0.0710601730536283,0.06503751049970728,0.056228182092469686,-0.0015701526658940257
-0.016890377450150512,0.05465034801337027,0.035803429820552464,0.02409065319989516,1.9727058824480642e-05,0.045703782197504234,0.03238626590199774,0.027384743580412995,0.07700258615001469,0.06988194404873443,0.061745724097671005,0.0004895914167647921
-0.011299600415252499,0.060859073271922234,0.041243590175840755,0.0298076012986707,0.004420104506871428,0.0520840686925642,0.0380223665639839,0.03364668590888211,0.08308961662721026,0.07490033693542089,0.06749003141446396,0.002744699368909677
-0.00547926080739535,0.06731148782598127,0.04690850449253911,0.03575191908570154,0.00902445955928121,0.058699460167131505,0.04382539731601886,0.04014763920548128,0.08932395752141306,0.08009721625760362,0.07346234693400198,0.00520474810250892
0.0005710828065441233,0.07400678602840861,0.052798909735018364,0.041923684215853185,0.013835659264837551,0.06554872848607762,0.04979830210206226,0.04688700344160023,0.09570755328648727,0.08547639198557197,0.07966317879306574,0.007878556163817798
0.006851155098168967,0.08094340532735418,0.058914810993680636,0.04832223134209657,0.01885586654712237,0.07262991505247268,0.05594328519774845,0.05386344942587257,0.10224159979396287,0.09104095696206768,0.08609230037406358,0.010774183733378729
0.013359963977562199,0.08811902626625695,0.06525548148496044,0.05494615211550774,0.02408654020451624,0.07994033080758513,0.06226181121038759,0.06107491880417555,0.10892654433303642,0.09679328690228486,0.09274875030503138,0.013898932626021487
0.020095800593286983,0.09553057248384511,0.07181946255132379,0.06179329518526846,0.029528434910198922,0.08747655623088228,0.06875460507896503,0.06851862405963044,0.11576208561057048,0.10273504039387041,0.09963083245963295,0.017259346290863314
0.027056239332386288,0.10317421071413556,0.07860456366126894,0.0688607661986653,0.03518160121214821,0.09523444134002963,0.07542165207414123,0.07619104851260199,0.12274717375109356,0.108867158896923,0.10673611595715951,0.020861209811308137
0.03423813782038301,0.11104535078643428,0.08560786240932561,0.07614492780109003,0.04104538553314102,0.10320910569089124,0.08226219779825214,0.08408794632069909,0.12988001029680035,0.1151898667439942,0.11406143516252966,0.02470954990504773
0.04163763692127996,0.11913864562533624,0.09282570451605565,0.08364139963604035,0.04711843017075252,0.11139493837752994,0.089274748185309,0.09220434247877404,0.13715804820755179,0.12170267114008802,0.12160288968628997,0.028808634924060536
0.04925016073756024,0.1274479912507254,0.10025370382805276,0.09134505834511833,0.053398673297356716,0.11978559803220695,0.09645706950099811,0.10053453281892286,0.14457799186087483,0.12840436216266032,0.1293558443846144,0.0331619748546126
0.05707041661018651,0.13596762012239116,0.10788674231794246,0.099250037568032,0.05988334896012636,0.12837401282538172,0.10380618834268143,0.10907208401048578,0.15213579705196292,0.13529301276162012,0.13731492935930448,0.03777232131725706
0.06509239511860167,0.14473470232774452,0.11571897008438219,0.10734972794259452,0.06656898708103279,0.13715238046571282,0.11131839163939605,0.11780983356004639,0.15984753090707662,0.14236597875932813,0.14547403995778946,0.04266296747940961
0.07330937008072824,0.15374900466415836,0.12374380535206127,0.11565072765139496,0.07345141345684601,0.14611338554622139,0.11898922665185441,0.12675523750187095,0.16774633554624416,0.14961989885059798,0.1538364310881385,0.04787416520616698
0.08171699776011734,0.16298118658589042,0.13198694233592478,0.1241894378850992,0.08052574975913442,0.15529136025229062,0.126813500972444,0.13594200131024028,0.17580783973970548,0.1570506946026957,0.16244095709430462,0.05338801572685119
0.09035282355124324,0.1724023126046367,0.14046339517311002,0.1329425244027279,0.08778641353426556,0.1646833588698371,0.13480349806796638,0.14534550313357442,0.18400575190503518,0.16466149514590828,0.17126805508754564,0.05918473577532926
0.09920803458591636,0.18198385228953215,0.14914485606790293,0.1418812628684768,0.09524964330631289,0.17425936632109254,0.14299336013550468,0.1549369171429676,0.19231419120335697,0.1724931780463097,0.1802896526969024,0.06524495811892092
0.10825430276369748,0.1916976802671501,0.15800343917169307,0.15097736473663678,0.1029422085416966,0.18398980656495684,0.15135899419139262,0.16468784427396538,0.200707687539343,0.18053087380743188,0.18947811074100832,0.07154973155839697
0.11746375174994275,0.20151607622150236,0.1670117034773959,0.16020297725159396,0.11083884918616126,0.19384554259699927,0.15987346491910914,0.1745703122265629,0.20916118156121413,0.18874915500687453,0.19880622322808994,0.07808052092798037
0.12680895697580274,0.21141172489403962,0.1761426528194531,0.16953068344782907,0.11891346371475846,0.20379787644945732,0.16851031722718166,0.18455677546520607,0.21765002466073977,0.1971230653904589,0.20824721735596685,0.0848192070953456
0.13626294563822214,0.2213577160836509,0.18536973587383224,0.1789335021499183,0.1271404281000655,0.21381854919123705,0.17724357624918557,0.19462011521879055,0.2261499789732379,0.20562811987222848,0.21777475351205144,0.09174808696161948
0.14579919669994118,0.231327544646664,0.19466684615802732,0.18838488797253297,0.1354945958121855,0.22387974092791366,0.1860477473437453,0.20473363948066317,0.2346372173775755,0.21424030453444876,0.22736292527334928,0.09884987346138008
0.1553916408894944,0.24129511049684527,0.20400832203105848,0.1978587313204391,0.14395129781874666,0.23395407080173025,0.19489781609453377,0.21487108300862057,0.24308832349616788,0.22293607662760678,0.23698625940645918,0.10610769556265753
0.16501466070121057,0.25123471860539964,0.21336894669347134,0.20732935838849847,0.15248634258490246,0.24401459699159928,0.2037692483102718,0.2250066073249098,0.25148029169497943,0.2316923645704118,0.24661971586757214,0.11350509826693377
0.17464309039521395,0.2611210790009707,0.2227239481873386,0.21677153116166742,0.16107601607333227,0.25403481671310135,0.21263799002472933,0.2351148007162283,0.2597905270835228,0.2404865679497947,0.256238687802473,0.12102604260914232
0.18425221599742236,0.2709293067696406,0.2320489993962582,0.2261604474149973,0.16969708174424059,0.2639886662184858,0.22148046749672434,0.24517067823372354,0.2679968455148593,0.2492965575209087,0.26581900154653915,0.12865490565766896
0.19381777529954936,0.28063492205493007,0.2413202180453544,0.23547174071363483,0.17832678055535742,0.2738505207966708,0.23027358721012328,0.2551496816929939,0.276077473585599,0.2581006752071285,0.2753369166247412,0.13637648051435064
0.2033159578591023,0.29021385005779826,0.25051416670127796,0.24468148041282195,0.18694283096193817,0.28359519477324296,0.23899473587384143,0.2650276796740876,0.2840110486359006,0.26687773410005095,0.28476912575164226,0.1441759763144767
0.21272340499938375,0.2996424210366431,0.25960785277220544,0.2537661716578954,0.1955234289167641,0.2931979415104576,0.24762178042184232,0.27478096752150355,0.2917766187494719,0.27560701845949476,0.2940927548313992,0.1520390182267879
0.22201720980949086,0.30889737030730124,0.2685787285078396,0.2627027553842869,0.20404724787014142,0.3026344534072387,0.256133068013138,0.28438626734419065,0.29935364275356835,0.28426828371350055,0.3032853629577614,0.15995164745347695
0.231174917144315,0.31795583824304785,0.27740469099940884,0.27146860831752384,0.2124934387699019,0.311880861899179,0.2645074260317889,0.29382072801554854,0.30672199021899516,0.29284175645833066,0.31232494241407127,0.16790032123018833
0.24017452362454272,0.32679537027459643,0.28606408217966856,0.2800415429732281,0.22084163006140287,0.32091373745853957,0.27272416208690403,0.3030619251734267,0.31386194146010543,0.30130813445846977,0.3211899186732642,0.17587191282601838
0.24899447763665494,0.3353939168900995,0.2945356888228994,0.2883998076571168,0.22907192768752718,0.3297100895942503,0.28076306401264084,0.31208786122012533,0.3207541875348014,0.3096485866466241,0.3298591503978686,0.18385371154351496
0.25761367933291046,0.34372983363514176,0.3027987425447961,0.296522086465051,0.23716491508824603,0.3382473668523752,0.2886043998679394,0.32087696532245386,0.32737983024413064,0.3178447531230689,0.33831192943966043,0.19183342271584664
0.26601146396643227,0.35178187506074166,0.3108328071604577,0.3043875478200482,0.24510121649924002,0.3465039224064208,0.296228652058743,0.32940815234087967,0.3337199792124743,0.3258780920355705,0.3465276352902611,0.19979633592523494
0.27416753932229215,0.35952919844879466,0.31861746635432137,0.3119760183487994,0.25286020326141273,0.35446039110054967,0.3036157791619799,0.33766096947348595,0.33975483956653885,0.3337279802913413,0.3544848035284418,0.20771706750863383
0.2820619873331568,0.3669514504234421,0.32613269429965575,0.3192679509935313,0.2604211612953031,0.3620984374960742,0.31074608760914396,0.3456153478742424,0.34546570404048754,0.34137357515056393,0.36216234920069423,0.21556755846933293
0.2896753252370906,0.37402870658107684,0.3333589237427545,0.32624427298230985,0.2677638136485966,0.36940020571349197,0.31760039538459534,0.3532516193430556,0.35083455679608505,0.3487944848158442,0.36953969270356185,0.22332005259575638
0.2969885220378207,0.3807414475757218,0.3402770322715475,0.33288634733360445,0.2748683608661812,0.3763482789102942,0.3241600006979937,0.36055054244407375,0.3558437927408918,0.3559707886578484,0.3765966876237592,0.23094720970887442
0.30398299850486904,0.38707055911883875,0.3468683423154902,0.3391759728559792,0.2817154809904703,0.38292567928064014,0.33040668198404644,0.3674933025058952,0.3604762175260156,0.36288303721546505,0.383313620737593,0.23842210566310845
0.31064062717355206,0.39299733197932724,0.35311462114556436,0.3450953841480937,0.28828632956140265,0.3891158680553575,0.3363226979025102,0.37406151162156864,0.36471504754611395,0.36951225219580386,0.38967121201096333,0.24571823234633244
0.3169437323449812,0.39850346198352665,0.35899808087427804,0.35062725159870234,0.2945625396164426,0.39490274550194326,0.34189078733818956,0.38023720864859306,0.3685439099393921,0.37583992647419695,0.39565061459936335,0.2528094976798716
0.32287509008606174,0.40357105001521343,0.36450137845566516,0.35575468138665467,0.3005262216905797,0.40027065092456265,0.3470941694009379,0.3860028592089178,0.37194684258760463,0.38184802409419827,0.4012334148478789,0.2596702256185033
0.3284179282294948,0.40818260201560397,0.36960761568528605,0.3604612154808952,0.30615996381632943,0.4052043626640496,0.35191654342565687,0.3913413556889426,0.3749082941160545,0.3875189802675837,0.40640163229118925,0.26627515615045616
0.33355592637377507,0.41232102898335277,0.37430033920022654,0.3647308316404642,0.3114468315237321,0.40968909809790627,0.35634208897229686,0.39623601723951773,0.3774131238935932,0.39283570137435075,0.411137719653566,0.2725994452974114
0.3382732158831923,0.41596964697455274,0.37856354047909907,0.3685479434144957,0.3163703678403542,0.4137105136403045,0.3603554658258561,0.40067058977594305,0.3794466020326213,0.39778156496271927,0.4154245628488743,0.2786186651145013
0.3425543798878313,0.4191121771027356,0.3823816558420425,0.3718974001422201,0.3209145932912868,0.4172547047420837,0.3639418139963822,0.40462924597796973,0.3809944093890876,0.4023404197491306,0.4192454809805725,0.28430880369031053
0.34638445328357087,0.4217327455388715,0.38573956645072094,0.3747644869529626,0.3250640058991472,0.4203082058907526,0.3670867537189707,0.40809658528979875,0.38204263756248963,0.4064965856182486,0.4225842263417114,0.2896462651468751
0.3497489227320849,0.4238158835113695,0.38862259830832513,0.37713492476614296,0.3288035811840774,0.4228579906104881,0.3697763854537657,0.4110576339200816,0.3825777888958738,0.4102348536229579,0.4254249844149346,0.2946078696396829
0.3526337266608417,0.42534652730607664,0.39101652225957173,0.3789948702912765,0.33211877216374575,0.4248914714621362,0.37199728988595954,0.41349784484191954,0.38258677647583506,0.4135404859843666,0.42775237387247955,0.29917085335767407
0.3550252552631042,0.4263100182662795,0.3929075539907039,0.3803309160279735,0.33499550935334516,0.4263965000432109,0.37373652792579365,0.4154030977928651,0.382056924132517,0.4163992160918036,0.4295514465761759,0.30331286852323996
0.35691035049793,0.4266921027927025,0.39428235402949036,0.38113009026593925,0.3374202007655946,0.4273613669878958,0.3749816407085574,0.41675969927492046,0.380975966439612,0.41879724850281985,0.43080768757744686,0.3070119833922242
0.3582763060901719,0.42647893234350864,0.3951280277452262,0.38137985708497457,0.33937973191073834,0.42777480196704226,0.3757206495945887,0.417554382554538,0.37933204871436066,0.4207212589431885,0.43150701511730827,0.31024668225392193
0.35911086753047666,0.4256549634459015,0.39543212534873246,0.38106811635497473,0.3408614657965459,0.4276259736881704,0.37594205616927423,0.4177743076626215,0.3771137270175528,0.42215839430690477,0.4316357806263692,0.31299586543107993
0.35940223207528593,0.42417191522174863,0.39518264189235675,0.38018320373593034,0.34185324292831243,0.42690448989546975,0.3756348422430488,0.41740706139452394,0.3742917548389389,0.423096272656185,0.43118076872483146,0.31522024471497534
0.35913904874683555,0.42203630370556905,0.39436801726997245,0.3787072279428805,0.34234338130885866,0.4256003973697973,0.3747884698513964,0.416432825808175,0.3708368887938571,0.42352298322146814,0.4301253490580271,0.31688094066211514
0.3583104183331573,0.41927723972886755,0.3929618905917344,0.37659278010407615,0.34232067643853,0.4236777387171235,0.3733928812548479,0.41480532375133183,0.36677811808720456,0.42342708640141485,0.42841924320200253,0.31799787465801715
0.3568816963281928,0.41592346694883287,0.39092449281733327,0.37385735392297487,0.3417744013151987,0.4211163963379023,0.3714376121053882,0.412542738372811,0.3621458890921707,0.42279761376290803,0.4260723434469963,0.31859238333430345
0.3548238454900085,0.4120033618483389,0.3882810471613682,0.37053076377099353,0.3406941835277189,0.4179468930337056,0.3688713637935609,0.4096733339885381,0.3569702757663302,0.42159798091660683,0.4231125251854216,0.3186854261162885
0.352165094847497,0.4075449337359441,0.38506055483500107,0.3666424216897696,0.339015303282493,0.4141995747462435,0.3656913353991369,0.4062249813004223,0.351280979651644,0.4197959958228923,0.41956726288906754,0.31829758522297874
0.34893408911313234,0.402575824745891,0.38129159801265794,0.36222133739116097,0.3367118814735365,0.4099043767729621,0.3619289997701521,0.4022251573963563,0.34510732987445825,0.4174199054268042,0.41546363010909915,0.3174490656670725
0.3451590355061039,0.39712330983810745,0.37700233983202946,0.3572961182572465,0.33381643215141193,0.40509082376704303,0.3576153517194294,0.3977009457502168,0.33847828314550515,0.4144983872826954,0.4108282994760568,0.31615969525496046
0.34086770375231545,0.39121429679820513,0.37222052439407055,0.3518949693403251,0.33036082828258617,0.3997880297374038,0.35278090802457907,0.39267903622186373,0.3314224237599029,0.411059644156332,0.4056875426998569,0.3144489245867254
0.33608742608438535,0.38487532623748066,0.3669734767630008,0.34604569336291663,0.32637630174942905,0.3940246980486966,0.34745570742799875,0.3871857250571409,0.3239679635971554,0.40713140402489467,0.40006723056979093,0.31233582705614177
0.3308450972416463,0.3781325715929154,0.3612881029663041,0.33977569071776126,0.321893443350214,0.3878291214213107,0.34166931063687334,0.3812469148878759,0.31614274212115234,0.40274092007697837,0.39399283295452725,0.3098390988506763
0.32516717447014554,0.3710118391271749,0.3551908899947289,0.3331119594678203,0.3169422027991181,0.38122918193137,0.3354508003231749,0.37488811473187944,0.30797422638016914,0.39791497071259174,0.3874894188021085,0.3069770589514879
0.31907967752264493,0.3635385679286092,0.348707905802288,0.3260810953462751,0.31155188872622147,0.37425235101073423,0.32882878112366304,0.36813443999294654,0.299489511006867,0.3926798595431574,0.38058165613995415,0.3037676491334273
0.3126081886586209,0.35573782991125363,0.34186479930625896,0.318709291756528,0.305751168677508,0.36692568944699916,0.3218313796398843,0.3610106124608555,0.2907153182182932,0.3870614153915129,0.3732938120748588,0.3002284339650376
0.30577785264426427,0.3476343298148272,0.3346868003871835,0.31102233977220156,0.2995680691148651,0.3592758473834956,0.3144862444381727,0.3535409603113684,0.2816779978158804,0.38108499229190895,0.36564975279299283,0.2963766008085539
0.29861337675248045,0.3392524052047341,0.3271987198888679,0.3030456281371392,0.29302997541608317,0.3513290643192905,0.3068205460496499,0.3457494181062307,0.27240352718544725,0.37477546949001095,0.3576729435599024,0.2922289598199032
0.29113903076288933,0.3306160264720628,0.31942494961838297,0.2948041432654047,0.2861636318748565,0.34311116910918604,0.2988609769702242,0.33765952679317185,0.2629175112971985,0.3681572514428981,0.34938644872050945,0.28780194394870456
0.2833786469618253,0.3217487968335865,0.31138946234606396,0.28632246924128296,0.2789951417007826,0.3346475799637205,0.2906337516605916,0.32929443370590483,0.2532451827057244,0.3612542678190639,0.34081293169911153,0.28311160893826925
0.2753556201423374,0.31267395233176276,0.3031158118055103,0.27762478781927863,0.27154996701936274,0.32596330444916766,0.28216460654623504,0.32067689256412624,0.24341140155000068,0.3540899734984159,0.33197465499938184,0.27817363332560074
0.267092907604189,0.3034143618347338,0.2946271326935863,0.268734878424118,0.2638529288720012,0.3170829394875366,0.2734788000174252,0.31182926347351614,0.23344065555338958,0.34668734857227557,0.3228934802043692,0.273003318441394
0.2586130291538582,0.2939925270363268,0.2859461406704208,0.2596761181507469,0.25592820721600595,0.30803067135657225,0.26460111242921996,0.30277351292573873,0.22335706002363867,0.3390688983433786,0.31359086797649854,0.2676155884100369
0.24993806710453742,0.2844305824560526,0.27709513235940647,0.2504714817643324,0.2477993409245885,0.29883027568975545,0.2555558461014642,0.2935312137984415,0.21318435785288148,0.33125665332587506,0.30408787805756987,0.2620249901496088
0.2410896662761339,0.2747502954391078,0.2680959853472009,0.24114354170026203,0.2394892277868635,0.2895051174763023,0.24636682531879023,0.28412354535525547,0.2029459195176374,0.32327216924532864,0.2944051692687597,0.2562456933718811
0.23208903399526912,0.26497306615637256,0.2589701581837269,0.23171446806414422,0.23102012450784956,0.2800781510611648,0.23705739633061798,0.27457129324579577,0.1926647430788115,0.31513652703871764,0.28456299951061953,0.2502914905823177
0.22295694009527903,0.2551199276044118,0.2497386903821696,0.22220602863180705,0.22241364670846825,0.2705719201450302,0.22765042735115384,0.2648948495056607,0.18236345418169442,0.3068703328544338,0.2745812257630765,0.2441757970800742
0.21371371691621432,0.2452115456054754,0.2404222024189807,0.21263958884930004,0.21369076892554456,0.26100855778432197,0.21816830855939223,0.2551142125564323,0.17206430605596315,0.29849371805228336,0.2644793040854344,0.23791165095799804
0.20437925930484005,0.2352682188074976,0.23104089573387565,0.20303611183289305,0.2048718246118073,0.2514097863911988,0.20863295209911464,0.24524898720567637,0.16178917951568003,0.290026339203487,0.2542762896163716,0.23151171310262933
0.19497302461463564,0.22530987868409702,0.22161455272983396,0.19341615836907672,0.19597650613588868,0.24179691773355513,0.19906579207888997,0.23531838464694282,0.1515595829592934,0.2814873780906788,0.24399083657394272,0.22498826719420006
0.18551403270579575,0.21535608953457747,0.21216253677310032,0.18379988691456195,0.18702386478232413,0.2321908529350213,0.18948778457207405,0.2253412224597641,0.14139665236963753,0.2728955417079074,0.23364119825557828,0.21835321970663424
0.1760208659452288,0.20542604848392634,0.2027037921931831,0.1742070535962806,0.1780323107515526,0.2226120824749627,0.17991940761681047,0.21533592460965734,0.1313211513139321,0.26426906226063546,0.22324522703808403,0.2116180999075478
0.16651168325847432,0.1955385875376136,0.1932568292151353,0.16465698071751037,0.1690196260022673,0.21308060343462623,0.17038058895098068,0.20532057058262732,0.12135338558937683,0.25562569138205415,0.2128204288388143,0.20479426068530646
0.15700450738885405,0.18571221558719564,0.18383941593461497,0.15516791293795593,0.1600032267837779,0.2036142277846616,0.16088922871926659,0.19531389982725259,0.11151145834837173,0.2469825818989203,0.20238507644924977,0.19789698399692657
0.14751721321948033,0.17596511670265608,0.17446859084007274,0.1457570434470612,0.15100015296323996,0.19422865115857718,0.15146125952977468,0.18533527092094126,0.10181134103318903,0.23835629263814856,0.19195816427447082,0.19094531396864983
0.13806724985535382,0.16631510949276038,0.16516096082116669,0.1364411368478436,0.1420268140304646,0.18493908955319177,0.1421120757075581,0.17540368979084084,0.09226856150996404,0.2297629028161708,0.18155833120356663,0.18395808495123162
0.12867162890818967,0.1567796453919588,0.15593271373082007,0.12723655541354123,0.13309897839116586,0.17576034832105902,0.1328565935424578,0.16553776875008266,0.08289827522921815,0.22121801686083403,0.1712038152050021,0.17695375408911962
0.11934692449641729,0.14737580866038594,0.14679961838522024,0.11815925908761236,0.12423177336696094,0.16670682217046878,0.12370925128910097,0.1557557264977812,0.07371526522585814,0.21273676441139852,0.16091245332661808,0.1699504013204537
0.11010927324518124,0.13812031638386105,0.13777702456381857,0.10922480548373621,0.11543968519537136,0.15779249516544666,0.1146840091669033,0.1460753881190346,0.06473394211917657,0.20433380031853915,0.15070168169563072,0.16296572937706535
0.10097437428634007,0.12902951847388802,0.12887986300933188,0.10044834988581247,0.10673655902982125,0.1490309407257526,0.10579434936006663,0.13651418508492535,0.05596834411285233,0.19602330464434475,0.1405885355186322,0.15601706378447858
0.0919574892584669,0.12011939766765513,0.12012264542774073,0.0918446452479616,0.09813559893963864,0.14043532162688405,0.09705327601758093,0.1270891552525189,0.047432136994949595,0.18781898266231808,0.1305896490815902,0.14912135286190928
0.08307344230684975,0.11140556952803546,0.11151946448829017,0.08342804219452388,0.0896493679100549,0.13201839000007287,0.08847331525322294,0.11781694286486473,0.03913861413791861,0.17973406485737628,0.12072125574984838,0.14229516772226553
0.07433662008349055,0.10290328244358682,0.1030839938234903,0.07521248902006171,0.08128978784220459,0.12379248733228701,0.08006651514555718,0.1087137985509954,0.031100696498595128,0.1717813069258505,0.11099918796812569,0.13555470227214717
0.06576097174710634,0.0946274176285507,0.09482948802911474,0.06721153168935652,0.07306813955312608,0.11576954446622982,0.07184444573793497,0.09979557932592784,0.023330932618201218,0.1639729897754857,0.10143887726051702,0.1289157732118466
0.05736000896312835,0.08659248912285442,0.08676878266420253,0.05943831383741094,0.0649950627757612,0.10796108160034039,0.06381819903849514,0.0910777485906624,0.01584149862234442,0.15632091952544158,0.09205535423049288,0.12239382003534782
0.04914680590370236,0.07881264379210887,0.07891429425105645,0.05190557676944864,0.0570805561589552,0.10037820828879382,0.055998389020163936,0.08257537613218274,0.00864419822101771,0.14883642750629117,0.08286324856089969,0.11600390503032684
0.04113399924768881,0.0713016613276099,0.07127802027524435,0.0446256594609131,0.0493339772674566,0.0930316234415,0.048395151620654435,0.07430313812345654,0.0017504627086006308,0.1415303702600222,0.0738767890139593,0.10976071327815246
0.03333378818066266,0.06407295424633783,0.06387153918559803,0.037610498557469216,0.04176404258191715,0.08593161532410543,0.04101814474246772,0.06627531712343523,-0.004828649036141851,0.13441312954003626,0.06510980343126976,0.10367855265388463
0.0257579343949131,0.05713889753475549,0.056706010394213746,0.030871628375001604,0.03437882749889287,0.07908806155799161,0.03387654825289144,0.058505802077053144,-0.011082450550059013,0.12749461231114917,0.05657571873380384,0.09777135382627618
0.018417762089444324,0.050497869362031024,0.04979217427645284,0.024420180899616024,0.02718576633084217,0.07251042912027583,0.026979063984000885,0.05100808831522923,-0.017003151042483858,0.12078425074959044,0.04828756092191119,0.09205006072404798
0.011324157969974394,0.0441413998423118,0.04314035217094063,0.018266885787638753,0.020191652306127836,0.06620777434381132,0.020333915732658962,0.04379527755486557,-0.022598725962596017,0.11429100224300444,0.040257955075316015,0.08650962824401809
0.004487571248936644,0.03806210971847177,0.03676044637956679,0.01242097019210072,0.013402637569015762,0.060188742917186316,0.013948849260514954,0.03687854327157885,-0.02787913129782768,0.1080233493904487,0.03249878381955944,0.08114308521439004
-0.002081986354521806,0.032252678729431244,0.03066189455094058,0.006878244658627446,0.006824233179674764,0.054460049860115725,0.007831132294006261,0.030255284982050448,-0.03285382883208422,0.10198930000239582,0.025010826406148597,0.07594395081797303
-0.00837494061453858,0.026705845610156376,0.024846003562529775,0.001629676308838087,0.0004613091141782953,0.049015149433611994,0.001987554524357421,0.02391930548654215,-0.03753221748973323,0.09619638710073147,0.017787023122705112,0.07090580788094422
-0.014383423659233984,0.021414408091659516,0.01930381320922791,-0.00333312147316437,-0.005681905735498042,0.043843897302199834,-0.003575572392420172,0.01786494721611155,-0.0419236333356039,0.0906516689187564,0.010821092119002972,0.06602230287284916
-0.020111259088683178,0.01637122290099931,0.014026865015632453,-0.008018456432517147,-0.011601823561474335,0.03893661992755256,-0.008852458537742061,0.012086629381991572,-0.04603734957498734,0.085361728901185,0.004106831094449308,0.06128714590660145
-0.025566186983968862,0.01156920576128038,0.009006789700700853,-0.01243455744359737,-0.017295497639967176,0.034283728974091814,-0.013844075863639189,0.006578847975590189,-0.04988257655363651,0.08033187746908925,-0.002361882701915178,0.056694110738483044
-0.030755595497024252,0.007001331391653124,0.004235307177749339,-0.016589574510023013,-0.022760622331290763,0.029875721308987607,-0.018560932618163946,0.0013361757684904937,-0.05346846175776688,0.07555757838437938,-0.008591092471417091,0.05223703476814345
-0.035686772064471205,0.002660633507314509,-0.00029577344554552326,-0.020491578764651738,-0.02799553307985432,0.025703179002158166,-0.0230136532257786,-0.0036467376875495543,-0.05680408981405524,0.07102935206156621,-0.014586761865749406,0.04790981903860071
-0.040366903407620704,-0.0014597951804924143,-0.004594553867147836,-0.024148562469581553,-0.0329992064141648,0.021756769326270305,-0.02721274571150284,-0.008375166060596566,-0.059898482489640366,0.06673794670916336,-0.020354774986971594,0.043706428236241185
-0.04480307553247279,-0.00536680296447882,-0.008669046590662182,-0.027568439016150546,-0.037771259946825286,0.01802724475673886,-0.031168601700913443,-0.012854306238542182,-0.06276059869212319,0.06267422846308231,-0.025900936387510072,0.03962089069081892
-0.049002273729716564,-0.009067179141309428,-0.012527174925333326,-0.030759042924937294,-0.04231195237453546,0.014505442971727078,-0.03489149642014445,-0.01708927832910326,-0.06539933446956647,0.05882918138663262,-0.031230971070157945,0.03564729837545652
-0.05297138257472983,-0.012567654011603117,-0.016176772986046785,-0.033728129845760346,-0.04662218347809134,0.011182286852146534,-0.03839158869588718,-0.021085125659821145,-0.06782352301049495,0.05519390747052204,-0.03635052448807504,0.03177980690664439
-0.05671718592757999,-0.015874898879932462,-0.019625585693328083,-0.036483376557678644,-0.05070186259622331,0.008048784481657002,-0.04167892095538997,-0.02484681477806224,-0.07004193464389503,0.05175962663285623,-0.04126516254478787,0.02801263554424127
-0.060246366933023064,-0.01899552605482409,-0.02288126877334365,-0.03903238096899114,-0.05455541002666778,0.005096029146666729,-0.0447634192264586,-0.02837923545101808,-0.07206327683921547,0.0485176767191393,-0.045980371594189544,0.024340067191473802
-0.06356550802050405,-0.02193608884875834,-0.0259513887578997,-0.04138266211723721,-0.05819190921072552,0.0023151993363321223,-0.047654893137455814,-0.03168720066570487,-0.07389619420636663,0.04545951350227283,-0.05050155844054007,0.020756448394937177
-0.06668109090415716,-0.024703081578169472,-0.028843422984443444,-0.043541660169196174,-0.061620285034204275,-0.0003024412574418184,-0.050363035917301714,-0.03477544662896388,-0.07554926849572094,0.04257671068255711,-0.05483405033846592,0.01725618934459447
-0.06959949658280558,-0.027302939563445924,-0.03156475959606207,-0.04551673642088784,-0.06484929260245301,-0.0027655437400022284,-0.05289742439547356,-0.0376486327674611,-0.07703101859811268,0.039860959887690076,-0.058983094992960616,0.01383376387377662
-0.07232700533996153,-0.029742039128929677,-0.03412269754148333,-0.04731517329757198,-0.0678875172403626,-0.005082674013947536,-0.05526751900200577,-0.04031134172768764,-0.07834990054483798,0.03730407067276799,-0.06295386055938407,0.010483709459183213
-0.07486979674382606,-0.03202669760291672,-0.03652444657507556,-0.04894417435374875,-0.07074337449236542,-0.007262312779128081,-0.057482663767490075,-0.042768079375959514,-0.07951430750765524,0.03489797052028515,-0.06675143564346311,0.0072006272208816335
-0.07723394964728952,-0.03416317331765696,-0.038777127256847205,-0.05041086427315852,-0.07342511012243527,-0.009312855532645874,-0.059552086323075265,-0.04502327479841746,-0.08053256979878434,0.03263470484013374,-0.07038082930129111,0.003979181922307423
-0.0794254421879311,-0.036157665609354184,-0.0408877709524474,-0.05172228886878179,-0.07594080011408769,-0.01124261256885455,-0.06148489790046736,-0.04708128030102737,-0.0814129548709074,0.030506436969604422,-0.07384697103932827,0.0008141019702645469
-0.08145015178801925,-0.038016314818166114,-0.042863319833165416,-0.05288541508283921,-0.07829835067037985,-0.013059808979359426,-0.06329009333192986,-0.048946371409579914,-0.08216366731716841,0.02850544817338549,-0.07715471081440145,-0.002299820585075385
-0.083313855154511,-0.03974520228820434,-0.044710626875931074,-0.05390713098679172,-0.08050549821391022,-0.014772584653017663,-0.06497655105028306,-0.05062274686969066,-0.08279284887117319,0.026624137643563625,-0.08030881903370422,-0.005367730050172076
-0.08502222827905274,-0.04135035036753425,-0.04643645586331462,-0.0547942457813405,-0.08256980938681913,-0.01638899427593787,-0.0665530330889047,-0.0521145286468003,-0.0833085784069894,0.024855022499623555,-0.08331398655479685,-0.00839470708811764
-0.0865808464379798,-0.04283772240817517,-0.04804748138352663,-0.055553489796426866,-0.08449868105078831,-0.017917007331480442,-0.06802818508172963,-0.05342576192617421,-0.08371887193914691,0.023190737788447907,-0.08617482468560639,-0.011385768718635642
-0.08799518419231658,-0.04421322276610046,-0.04955028883041819,-0.05619151449123239,-0.08629934028704121,-0.01936450810025765,-0.06941053626324992,-0.054560415112902716,-0.08403168262263742,0.02162403648431771,-0.08889586518442652,-0.014345868318081767
-0.08927061538777634,-0.04548269680123718,-0.05095137440348066,-0.056714892454178975,-0.08797884439634271,-0.02073929566013313,-0.07070849946851486,-0.05552237983190119,-0.08425490075291435,0.020147789488911674,-0.09148156025991756,-0.017279895619443306
-0.09041241315476163,-0.04665193087746646,-0.05225714510784603,-0.05713011740292834,-0.08954408089899946,-0.022049083886222495,-0.07193037113313093,-0.05631547092790979,-0.08439635376589333,0.018754985631306925,-0.09393628257110669,-0.020192676712339735
-0.0914257499083637,-0.04772665236262313,-0.05347391875428644,-0.05744360418438278,-0.09100176753485943,-0.02330150145089288,-0.07308433129326188,-0.05694342646549366,-0.08446380623795176,0.017438731667978602,-0.09626432522738768,-0.023088974043022042
-0.09231569734836305,-0.04871252962849597,-0.05460792395921453,-0.057661688774684715,-0.09235845226331234,-0.024504091823763202,-0.07417844358562856,-0.05740990772904281,-0.08446495988592903,0.016192252282799677,-0.09846990178852116,-0.02597348641437343
-0.0930872264592291,-0.04961517205082773,-0.05566530014468334,-0.05779062827921679,-0.09362051326328946,-0.02566431327170393,-0.07522065524750904,-0.05771849922277233,-0.08440745356712628,0.015008890087041524,-0.10055714626463437,-0.028850848985908818
-0.09374520751160634,-0.050440130008317235,-0.05665209753489289,-0.057836600931223336,-0.09479415893158663,-0.02678953885178509,-0.07621879710919849,-0.057872708676863116,-0.08429886327433479,0.013882105621998611,-0.10253011311666854,-0.03172563326829686
-0.09429460143179622,-0.051192766371592244,-0.057573827245999104,-0.057805528579852605,-0.09588521190926381,-0.027886148192515545,-0.07717961254799242,-0.057876757922207166,-0.08414606183305819,0.01280581543012152,-0.10439283488046854,-0.03460164164546654
-0.09474098892041939,-0.051877901182278786,-0.05843421732664945,-0.05770258588624761,-0.09689851193490477,-0.02895701635418537,-0.0781060726370606,-0.05773776958487241,-0.08395344852440943,0.011775326789979224,-0.10614948149198196,-0.03747995679442323
-0.09509000858390748,-0.05250020135959006,-0.059236545174492575,-0.0575327500851638,-0.09783852471145489,-0.030004170685081596,-0.07900017261189611,-0.05746348235047247,-0.08372496883010061,0.01078647300569835,-0.10780417725799732,-0.040360861065470516
-0.09534714899849756,-0.053064363979403575,-0.05998416675889201,-0.057301094508322686,-0.09870948769036249,-0.03102974346633526,-0.07986379482741054,-0.057061522995480354,-0.08346530244763767,0.009835696408911215,-0.10936088949576042,-0.04324406799389629
-0.09551778409354847,-0.05357505230739517,-0.0606803962491501,-0.05701266304546792,-0.09951545202441507,-0.03203583549006743,-0.08069870623315847,-0.056539431592181305,-0.08317929139058605,0.008919695995547483,-0.11082348409593239,-0.046129084759477926
-0.09560718708226766,-0.05403687061471338,-0.06132845862306832,-0.05667242071856461,-0.10026029908494574,-0.03302446234889095,-0.08150655737931181,-0.05590467143208676,-0.08287171482655684,0.008035288697304466,-0.11219574739822169,-0.04901535489001617
-0.09562053046255177,-0.05445436417646088,-0.06193148966408905,-0.056285253678818294,-0.10094774046282903,-0.033997554432670274,-0.08228888241659973,-0.05516462902653317,-0.08254728906362278,0.007179409373277046,-0.11348138619270316,-0.051902258269943664
-0.09556288601698633,-0.05483201927169424,-0.06249253596129462,-0.05585596920667469,-0.10158131796848097,-0.03495695692852162,-0.0830470990963084,-0.054326614106681693,-0.08221066755031861,0.006349110809958425,-0.11468402771981864,-0.05478911114032453
-0.09543922481284586,-0.05517426318342381,-0.06301455490940788,-0.055389295711819664,-0.10216440363185925,-0.035904429820813,-0.08378250877028141,-0.05339785962351854,-0.08186644087564113,0.005541563721240081,-0.11580721967037655,-0.05767516609885498
-0.09525441720209404,-0.05548546419861399,-0.06350041470879224,-0.05488988273317952,-0.10270019970246307,-0.03684164789116386,-0.08449629639091957,-0.052385521747854935,-0.08151913676904876,0.004754056748411159,-0.11685443018555199,-0.060559612099863325
-0.09501323282138353,-0.055769931608182916,-0.06395289436545147,-0.05436230093892039,-0.10319173864933334,-0.03777020071844559,-0.08518953051118064,-0.05129667987032689,-0.08117322010046227,0.0039839964601591366,-0.11782904785688704,-0.06344157445430945
-0.0947203405920559,-0.05603191570700271,-0.06437468369102956,-0.053811042126448785,-0.10364188316105247,-0.03869159267878119,-0.08586316328457971,-0.05013833660139529,-0.08083309288026388,0.003228907352569671,-0.11873438172629004,-0.06632011482978496
-0.09438030872014179,-0.05627466293078773,-0.06476838330281126,-0.05324051922241154,-0.10405332614574436,-0.039607242945545254,-0.08651803046518922,-0.04891741777134609,-0.08050309425929807,0.0024864318491261556,-0.11957366128603628,-0.06919423125051405
-0.09399760469636101,-0.05649372863368566,-0.0651365046237212,-0.05265506628269577,-0.10442859073107465,-0.04051848548936412,-0.08715485140763864,-0.04764077243029001,-0.08018637521301017,0.001754330300710455,-0.12035003647876792,-0.07206168118315426
-0.09357659529612213,-0.05668856705205625,-0.06548146988232492,-0.05205893849242833,-0.10477003026425043,-0.04142656907811592,-0.08777422906711461,-0.04631517284816288,-0.0798787038829384,0.0010304809856022668,-0.12106657769749345,-0.0749127587143166
-0.09312154657952293,-0.056860017656589726,-0.06580561211282819,-0.05145631216597684,-0.10507982831202041,-0.042332657276930453,-0.08837664999936107,-0.04494731451472517,-0.07958002546836249,0.00031288010947945477,-0.12172627578558834,-0.07774204282735009
-0.0926366238913502,-0.0570088660364874,-0.06611117515507711,-0.050850181239172475,-0.10535999866067483,-0.043237828448188985,-0.08896248436067931,-0.04354218837877891,-0.07929142375601453,-0.0004003581945821455,-0.12233181810502305,-0.08054523272453745
-0.09212589186107963,-0.05713584389946172,-0.06640031365455833,-0.05023673168570705,-0.10561238531604564,-0.04414291664369575,-0.08953198590792746,-0.04209851243735137,-0.07901392926277263,-0.0011110018661082133,-0.12287945771809636,-0.08331797364274188
-0.09159331440287592,-0.05724162907173623,-0.06667373291631733,-0.0496163208141734,-0.10583866250350628,-0.045042629452727766,-0.09008529199852124,-0.04061961321093065,-0.07874851923566092,-0.0018207009172269834,-0.12336711076189857,-0.0860558568534073
-0.09104275471559319,-0.05732684549804571,-0.06692593061077173,-0.048990342361522436,-0.10604033466797173,-0.04593299535492078,-0.0906224235904332,-0.039109440120570896,-0.07849611765184969,-0.0025309874326680804,-0.12379505468068269,-0.0887544196625579
-0.09047766671902578,-0.057392063241636225,-0.06715591132250526,-0.04836013565101303,-0.1062187364738986,-0.0468125765850352,-0.09114328524219328,-0.037571889293724084,-0.07825759521865522,-0.0032432755697633375,-0.12416351282381657,-0.09140914541079842
-0.08989537593334065,-0.057437798484264675,-0.0673634405801185,-0.047726985592212216,-0.10637503280528507,-0.04767988019976994,-0.0916476651128888,-0.03601080356423958,-0.07803376937354005,-0.003958861558446436,-0.12447265444578268,-0.09401546347331449
-0.08929579397487464,-0.057464513526199384,-0.06754822750552997,-0.04709212268099536,-0.10651021876567082,-0.04853335807776278,-0.09213516511858386,-0.034429972472364685,-0.0778254042841126,-0.00467892370125271,-0.1247225947061775,-0.096568749259872
-0.08868090201878279,-0.05747261678621973,-0.06770992481397635,-0.04645672299954578,-0.10662511967813727,-0.04937140691959039,-0.09259961163734615,-0.03283313226474446,-0.07763321084812762,-0.005404376303587352,-0.12491339466971263,-0.09906432421481737
-0.0880526201965426,-0.05746246280161626,-0.0678481288140125,-0.045821908216354984,-0.10672039108530734,-0.05019236824776814,-0.09303609947315186,-0.03122396589442157,-0.07745784669348572,-0.006130113632310877,-0.1250450613062139,-0.10149745581707767
-0.08741280759595384,-0.0574343522281906,-0.0679623794075114,-0.04518874558622245,-0.10679651874934543,-0.05099452840675052,-0.0934429933014908,-0.029606103020836327,-0.0772999161782339,-0.0068532806644032995,-0.12511754749062176,-0.1038633575801606
-0.08676326226113878,-0.05738853184025551,-0.06805216008966405,-0.044558247950256105,-0.10685381865195757,-0.05177611856293039,-0.09381858581099942,-0.027983120009826862,-0.07715997039056477,-0.007573926197636874,-0.12513075200299123,-0.10615718905215396
-0.08610572119254188,-0.05732519453063518,-0.06811689794897963,-0.04393137373587171,-0.1068924369943915,-0.05253531470463976,-0.09416109770346155,-0.026358539933629077,-0.07703850714881749,-0.008292024185729135,-0.12508451952849187,-0.10837405581572668
-0.08544186034693001,-0.05724447931066453,-0.06815596366728548,-0.04330902695679317,-0.10691235019743632,-0.05327023764214931,-0.09446867769380747,-0.024735832570876484,-0.07693597100147717,-0.009007473738342257,-0.12497864065740771,-0.11050900948812786
-0.08477329463739253,-0.057146471310190045,-0.06816867151972691,-0.04269205721305284,-0.10691336490142292,-0.053978953007668765,-0.09473940251011463,-0.02311841440660039,-0.07685275322717493,-0.009720099121083903,-0.12481285188513738,-0.11255704772118724
-0.08410157793334093,-0.05703120177756907,-0.06815427937476767,-0.04208125969099069,-0.10689511796622356,-0.05465947125534632,-0.0949712768936072,-0.021509648632229594,-0.07678919183468802,-0.010429649755506552,-0.12458683561219405,-0.11451311420131503
-0.08342820306050926,-0.05689864807967018,-0.06811198869418937,-0.04147737516325532,-0.10685577586433861,-0.05530974766126931,-0.09516223359865641,-0.019912845145590857,-0.07674557156293992,-0.011135800219107886,-0.1243002201442056,-0.11637209864950224
-0.08275460180095384,-0.05674873370187311,-0.0680409445330918,-0.04088108998880308,-0.10679043034384628,-0.05592768232346365,-0.0953101333927803,-0.018331260550908616,-0.07672212388099987,-0.011838150245330692,-0.12395257969191395,-0.11812883682132003
-0.08208214489305332,-0.05658132824806878,-0.06794023553989278,-0.04029303611289869,-0.1066996047182861,-0.05651112016189423,-0.09541276505664378,-0.016768098158805027,-0.07671902698808353,-0.012536224723562542,-0.12354343437117615,-0.11977811050692046
-0.08141214203150873,-0.056396247440659256,-0.06780889395632858,-0.03971379106711484,-0.10658425417036417,-0.05705785091846475,-0.0954678453840586,-0.015226507986299785,-0.07673640581355258,-0.013229473699136518,-0.12307225020296343,-0.12131464753103577
-0.08074584186734361,-0.0561932531205577,-0.06764589561745318,-0.03914387796933241,-0.10644521612221763,-0.05756560915701758,-0.09547301918198367,-0.013709586756810423,-0.07677433201691457,-0.013917272373330701,-0.12253843911336183,-0.12273312175297918
-0.0800844320079036,-0.0559720532471885,-0.06745015995163892,-0.038583765523740356,-0.10628321023541575,-0.05803207426333418,-0.09542585927052435,-0.01222037790015227,-0.0768328239878236,-0.014598921103367829,-0.12194135893357157,-0.12402815306664414
-0.07942903901685684,-0.05573230189848718,-0.06722054998057628,-0.03803386802083605,-0.10609883841095896,-0.05845487044513473,-0.09532386648293346,-0.010761871552538174,-0.07691184684607934,-0.015273645402416255,-0.12128031339990769,-0.12519430740050458
-0.07878072841419387,-0.05547359927090026,-0.06695587231927375,-0.03749454533742447,-0.10589258478927935,-0.058831566732077976,-0.09516446966561024,-0.00933700455657889,-0.0770113124416278,-0.01594059593958904,-0.12055455215379979,-0.1262260967176153
-0.07814050467622738,-0.055195491679385734,-0.066654877176058,-0.03696610293661915,-0.1056648157502405,-0.059159676975761764,-0.09494502567810091,-0.007948660461282751,-0.07713107935456115,-0.01659884853994449,-0.11976327074179177,-0.12711797901561142
-0.07750931123559272,-0.05489747155741245,-0.06631625835257367,-0.03644879186784151,-0.10541577991313787,-0.05943665984972267,-0.0946628193930988,-0.006599669522055915,-0.07727095289511747,-0.01724740418448601,-0.1189056106155424,-0.1278643583267086
-0.07688803048124739,-0.05457897745696051,-0.06593865324378397,-0.035942808766821294,-0.10514560813669802,-0.05965991884943626,-0.09431506369644409,-0.005292808700702097,-0.07743068510368117,-0.017885189010161985,-0.11798065913182466,-0.12845958471770297
-0.07627748375847138,-0.05423939404852116,-0.06552064283796973,-0.03544829585559618,-0.10485431351907928,-0.05982680229231659,-0.09389889948712353,-0.004030801665422919,-0.0776099747507826,-0.018511054309865924,-0.11698744955252635,-0.12889795428997153
-0.07567843136886679,-0.053878052121096955,-0.06506075171673009,-0.034965340942512135,-0.10454179139787154,-0.059934603317716814,-0.09341139567727119,-0.0028163187908174722,-0.07780846733709802,-0.019123776532436465,-0.1159249610446496,-0.12917370917947138
-0.07509157257035844,-0.05349422858220122,-0.06455744805498241,-0.03449397742222311,-0.10420781935009639,-0.059980559886928825,-0.09284954919216772,-0.001651977157882796,-0.07802575509345025,-0.019722057282657288,-0.11479211868031133,-0.12928103755674064
-0.07451754557719323,-0.053087146457858975,-0.06400914362096206,-0.034034184275691284,-0.10385205719220651,-0.059961854783183235,-0.09221028497024097,-0.0005403405540136061,-0.07826137698080772,-0.02030452332125706,-0.11358779343674263,-0.12921407362689746
-0.07395692755994049,-0.05265597489260582,-0.06341419377622257,-0.03358588607018698,-0.10347404698008665,-0.05987561561164959,-0.09149045596306518,0.0005160805269978155,-0.07851481869028518,-0.020869726564909565,-0.11231080219628957,-0.1289668976296409
-0.073410234645492,-0.05219982914948885,-0.06277089747563552,-0.033148952959288526,-0.10307321300905281,-0.05971891479943636,-0.0906868431353623,0.0015148288849613709,-0.07878551264314354,-0.02141614408623379,-0.11095990774641248,-0.12853353583925048
-0.07287792191706184,-0.051717770610066355,-0.06207749726739079,-0.03272320068288249,-0.10264886181385256,-0.05948876959559053,-0.08979615546500026,0.0024535006132892917,-0.07907283799078967,-0.021942178113793676,-0.10953381877968613,-0.1279079605645861
-0.07236038341418631,-0.05120880677440749,-0.06133217929299618,-0.03230839056716348,-0.10220018216866526,-0.05918214207109819,-0.08881502994299453,0.0033297450989959593,-0.07937612061477652,-0.022446156032098437,-0.10803118989380026,-0.1270840901490885
-0.0718579267259072,-0.05067192665954325,-0.060533155773410646,-0.03190422178094989,-0.10172628944309804,-0.05879606815834539,-0.08774021829859331,0.004141365510307984,-0.07969459778907749,-0.022926396108825645,-0.10645073060530524,-0.1260561126718333
-0.07137027790928349,-0.050106790579589965,-0.05968027234762331,-0.03151018044095316,-0.10122708993055063,-0.05833017213563727,-0.08657222555553026,0.004888276915030437,-0.08002672958325133,-0.023382488266493598,-0.10479332960970564,-0.12482479364041323
-0.07089661467809497,-0.04951368390506357,-0.05877490032174007,-0.03112554972728523,-0.10070322290636496,-0.057786498064079025,-0.08531506611467836,0.005572375014461402,-0.08037024502380448,-0.02381520822356372,-0.10306191237775703,-0.12339705314308179
-0.07043603494240172,-0.04889286426271652,-0.05781841550180289,-0.03074955268853692,-0.10015524263716824,-0.057167130107666025,-0.08397282026527503,0.006195683002160904,-0.08072279377450212,-0.024225305386514136,-0.10125943077957004,-0.12177999631904915
-0.06998757556858617,-0.04824453539781264,-0.056812137287171986,-0.03038135795960693,-0.09958358562901914,-0.056474097252332364,-0.0825494963097048,0.006760277365291306,-0.0810819722292557,-0.024613454317767985,-0.09938878259037008,-0.11998067434210623
-0.06955021237935319,-0.047568847174126835,-0.05575732867052581,-0.030020079761702397,-0.09898857062740796,-0.055709373305950785,-0.08104903056349898,0.007268287884617024,-0.08144532351212241,-0.024980254735693853,-0.09745281149049687,-0.11800608442062438
-0.06912286015372972,-0.046865895573945035,-0.05465519623786073,-0.029664777902338246,-0.09837039861725647,-0.05487487689833322,-0.07947528735533575,0.007721897634504919,-0.0818103374773059,-0.025326231514604926,-0.09545430706540495,-0.11586316979755545
-0.06870437262706541,-0.04613572269806451,-0.053506890168491326,-0.029314457775337872,-0.09772915282291801,-0.05397247148123001,-0.07783205902704017,0.00812334298292415,-0.08217445070915565,-0.02565183468475989,-0.09339600480566304,-0.11355881975043175
-0.0682935424910322,-0.04537831676579366,-0.052313504235050476,-0.02896807036083245,-0.09706479870817748,-0.053003965328330696,-0.07612306593358444,0.008474913591446094,-0.08253504652216714,-0.02595743943236227,-0.09128058610695491,-0.11109986959136664
-0.06788910139362414,-0.04459491547989196,-0.051076075803488864,-0.028624512225261585,-0.09637718397625136,-0.0519711115352633,-0.07435195644308741,0.008778952415244394,-0.08288945496098223,-0.026243346099560763,-0.08911067827007839,-0.10849310066705342
-0.06748971993915794,-0.04378630393618817,-0.04979558583307557,-0.028282625521372833,-0.09566603856978764,-0.05087560801959508,-0.07252230693681483,0.009037855703095163,-0.08323586755138578,-0.026509780184448932,-0.08688885450094605,-0.10574619857850637
-0.06709400768827257,-0.042950405045261805,-0.048472958876397604,-0.027941197988221932,-0.094930974670866,-0.04971909752083166,-0.07063762180917951,0.009254072997376482,-0.0835751345343984,-0.026756892341065847,-0.084617633910585,-0.10286946854544517
-0.06670051315792921,-0.0420845442341109,-0.04710906307936028,-0.027598962951172736,-0.09417148670099745,-0.0485031676004177,-0.0687013334677409,0.009430107134069068,-0.08390250815574699,-0.026984758379395173,-0.0822994815151369,-0.09986755323273304
-0.0663077238214116,-0.0411854645445181,-0.045704710181186846,-0.02725459932189723,-0.09338695132112466,-0.047229350641736834,-0.06671680233320554,0.009568514242755621,-0.0842120171910225,-0.02719337926536599,-0.07993680823585778,-0.09674389187365653
-0.06591406610832573,-0.040249326633051384,-0.04426065551441871,-0.026907185968944404,-0.0925766274316219,-0.04589912385011115,-0.06468731683942693,0.009670657234372923,-0.08449716771894492,-0.027382681120852355,-0.07753197089911873,-0.09350139371125045
-0.06551790540460008,-0.039271708771063174,-0.042777598004915575,-0.026566271686948195,-0.09173965617229496,-0.04451390925280191,-0.06261609343340527,0.009728238504433252,-0.08475094312136333,-0.027552515223673357,-0.07509364421559865,-0.09014243799829741
-0.06511754605248535,-0.03824760684469106,-0.04125618017185508,-0.02623030161337723,-0.09087506092238115,-0.04307626468266993,-0.06050627657528775,0.009746319046239266,-0.08496580408325577,-0.02770265800759325,-0.07263206221176971,-0.08666887399732828
-0.06471123135055455,-0.0371714343548574,-0.03969883445646506,-0.025891145449914024,-0.08998174730054939,-0.04160250842135847,-0.058360938738368354,0.009734022915124242,-0.08513368859272924,-0.02783281106232134,-0.07014288411559932,-0.08308202098062202
-0.0642971435537032,-0.03603702241726945,-0.038123127128535904,-0.02554038613572623,-0.08905850316490013,-0.040091963325468716,-0.05618308040908823,0.009700765401727922,-0.08524601194101994,-0.027942601133511828,-0.06762122459592768,-0.0793826682302054
-0.06387340387314908,-0.03483761976241953,-0.036526197087759,-0.025169319847467467,-0.08810399861296539,-0.038537412654433306,-0.05397563008703508,0.009656253031996423,-0.08529366672249256,-0.02803158012276435,-0.06506193963144032,-0.07557107503785364
-0.06343807247643245,-0.03356589273558459,-0.034899032204580016,-0.02476895599927697,-0.08711678598170862,-0.03693148510305911,-0.05174144428494366,0.0096104835671827,-0.08526702283464138,-0.02809922508762337,-0.06245962651066732,-0.07164697070508969
-0.06300467241578765,-0.032213925296826776,-0.03323253334036095,-0.024330017242779195,-0.086095299847525,-0.03526665480152705,-0.04948330752869582,0.009573746003846292,-0.08515592747808923,-0.028144938241578335,-0.05980862383198386,-0.06760955454318487
-0.06258143215432618,-0.03077321902099281,-0.031517514347380246,-0.02384293946708453,-0.08503785702624123,-0.033535241315392164,-0.04720393235731986,0.009556620573853161,-0.08494970515658803,-0.028168046954064198,-0.057103011503609934,-0.06345749587315858
-0.06215333793305655,-0.029234693097714523,-0.02974470206883274,-0.023297871798788533,-0.08394265657311542,-0.031729409645583614,-0.044905959322991344,0.009569978744375915,-0.08463715767701878,-0.02816780375046049,-0.05433661074361022,-0.05918893402577803
-0.061705510094644686,-0.027588684331408642,-0.027904736338829547,-0.022684676601972834,-0.0828077797828375,-0.02984117022840463,-0.04260275349291494,0.009624983217893686,-0.08420656414939154,-0.0281433863120921,-0.051502984079894495,-0.054801478341558636
-0.061223245658029085,-0.025824947141276627,-0.025988169982398543,-0.021992929478204228,-0.08163119018952861,-0.027862378935532457,-0.04032003813284529,0.009733087932192332,-0.08364568098684502,-0.028095408264327965,-0.04859543535021728,-0.0502922081707639
-0.06069201831842023,-0.023932653561304983,-0.02398546881548365,-0.021211919266535345,-0.08041073356674162,-0.025784737074018484,-0.03804531523055035,0.009906038060364213,-0.08294174190564743,-0.028051720909333933,-0.0456070097021779,-0.0456576728734053
-0.06009747844730096,-0.02190039324026506,-0.021887011644945414,-0.020330648043504186,-0.0791441379274612,-0.023599791386288333,-0.035764244096965395,0.010155870010808185,-0.08208145792519536,-0.028008270458306467,-0.042530493593220975,-0.0408938918192429
-0.059425453092426465,-0.01971617344171312,-0.01968309026856073,-0.01933783112313444,-0.07782901352410301,-0.021298934050141625,-0.03346296412882021,0.01049491142722972,-0.081051017368015,-0.027945884466115442,-0.03935841479063536,-0.03599635438778394
-0.058661945977823704,-0.01736741904399028,-0.01736390947502286,-0.01822189705693532,-0.07646285284851485,-0.01887340267875201,-0.03112809480863948,0.010935781188640921,-0.0798360858597611,-0.0278460020395055,-0.036083042371555116,-0.030960019968284597
-0.057793137503792405,-0.01484097254022254,-0.014919587043941486,-0.016970987633901778,-0.07504303063197566,-0.016314280320667195,-0.02874673570474262,0.011491389409360592,-0.0784218063292176,-0.027690673837095812,-0.03269638672295931,-0.02577931795974866
-0.056805384746904206,-0.012123094038321066,-0.012340153745842764,-0.015572957880514066,-0.07357163757498657,-0.013612495459809307,-0.026306466471243975,0.012174937439013829,-0.07679279900829725,-0.027462562069379935,-0.02919019954167155,-0.020448147770928037
-0.055685221460003,-0.009199461260981251,-0.009615553342169288,-0.01401537606073828,-0.0720611496648814,-0.010758822015474123,-0.023795346848052526,0.012999917862532413,-0.07493316143204207,-0.027144940498726428,-0.025555973834360392,-0.014959878820322698
-0.05441935807220504,-0.006055169545684294,-0.006735642585279944,-0.012285523676025784,-0.07049307164387722,-0.007743879342331845,-0.02120191666087223,0.013980114500154853,-0.07282646843862278,-0.026721694439377944,-0.021784943917539663,-0.009307350536181029
-0.05299468168889872,-0.002674731844695419,-0.0036901912184499255,-0.010370395465313811,-0.06884604908740352,-0.004558132230426735,-0.01851519582120159,0.01512960240742598,-0.07045577216933929,-0.026177320757451963,-0.017868085417567545,-0.0034828723564990782
-0.05139825609174473,0.0009579212749345808,-0.00046888197587120935,-0.00825669940502502,-0.06709960649700039,-0.001191890905176943,-0.015724684326334063,0.01646274787519753,-0.06780360206862043,-0.025496927870940593,-0.01379611527064729,0.0025217762709789024
-0.049617321738675876,0.00485944163137019,0.0029386894173480324,-0.0059308567090678894,-0.06523414730031842,0.002364688972624999,-0.012820362259357905,0.017994208429627456,-0.06485196488402417,-0.024666235749710566,-0.009559491722827194,0.008715345888760356
-0.04763929576389718,0.009047063427991612,0.006543014245183405,-0.0033790018288359213,-0.0632309538511186,0.006121606306812734,-0.009792689789155908,0.01973893283218054,-0.06158234466623693,-0.0236715759155028,-0.005148414329999986,0.015107117029605155
-0.045451771977885976,0.013538603253393372,0.010354670800693886,-0.0005869824532085191,-0.06107218742927264,0.010089014565845811,-0.006632607170405921,0.021712161079628114,-0.05797570276907481,-0.022499891441933248,-0.0005528239579035213,0.02170690021652466
-0.04304252086739188,0.018352460081385254,0.01438432438602211,0.0024596404914491235,-0.058740888240762665,0.01427722178280934,-0.0033315347435805033,0.023929424404047998,-0.054012477849482425,-0.02113873695449223,0.004237597217879384,0.02852503596278244
-0.04039948959543666,0.02350761527099252,0.018642727312394025,0.00577559284128654,-0.056220975417681104,0.01869669055541449,0.00011862706505304244,0.02640654527282467,-0.04967258586753364,-0.019576278630544484,0.009233425711921213,0.035572394771893466
-0.03751080200131426,0.029023632566455057,0.023140718900119706,0.009375887194967555,-0.05349724701823136,0.023358038045998623,0.0037254977434323724,0.029159637388649115,-0.044935420086431206,-0.017801294199329704,0.014445496728949288,0.04286037713762527
-0.0343647586005909,0.034920658097228205,0.027889225478592523,0.013275822913670642,-0.05055538002672696,0.028272035981524613,0.007496216693700826,0.03220510568951895,-0.03977985107250686,-0.015803172941962026,0.019884904163846442,0.050400913543996964
-0.030949836585105132,0.041219775965311144,0.03289926038628924,0.01749098612108828,-0.04738193035359217,0.033449610653581485,0.01143744323220662,0.03555964634873839,-0.03418422669522134,-0.013571915691429907,0.025563000601650513,0.05820646446527965
-0.027254689822967634,0.04801147743169842,0.038181923970770526,0.022037249703427676,-0.043964332835361664,0.038901842918383944,0.015555356589503251,0.039240246774918025,-0.02812637212716442,-0.011098134832596671,0.031491397317554314,0.06629002036599632
-0.023268148858561242,0.05532229467296905,0.043748403588680665,0.0269307733094105,-0.040290901234680605,0.04463996819677294,0.01985565591034954,0.043264185611975384,-0.021568534016579897,-0.008373054302200408,0.037681964276906114,0.0746811830659375
-0.018979220912541114,0.06310606852211444,0.0496099736057471,0.03218800335027272,-0.03635082824030471,0.050675376474214974,0.02434356025370922,0.04764903273913429,-0.014401807903375995,-0.005388509588853001,0.044146830135208745,0.08348021595781246
-0.014377089881834653,0.07131648674086705,0.055777995396781396,0.037825672999764776,-0.03213418546710036,0.057019612300802595,0.029023808592751638,0.05241264927092542,-0.00665006384505655,-0.002136947733041775,0.05089838223812087,0.09265223264549857
-0.009451116339641472,0.07990708401970059,0.062263917345678474,0.043860802194151456,-0.027631923456044198,0.06368437479125429,0.0339006598148511,0.057573187557185525,0.0016367725659122076,0.0013885726728717577,0.05794926662145572,0.10213722869085098
-0.004190837535433468,0.08883124197783,0.06907927484541676,0.050310697632212034,-0.022835871674223573,0.07068151762491443,0.038977892721587144,0.06314909118305838,0.01040909106083747,0.005194381484651598,0.06531238801118211,0.11187551525618919
0.0014140326022790864,0.09804218916872584,0.07623569030881089,0.057212206087469804,-0.017738738508603476,0.07802304906151605,0.04425880607285491,0.06919380259460121,0.019617596669958645,0.009286197027375093,0.07300101203079565,0.12180771916845029
0.007373494750171492,0.10749321779063942,0.08374529573397002,0.06468810807329557,-0.01233386632463795,0.08572175140573185,0.04974795207787198,0.07581401006193127,0.029212333473361607,0.013669958772108701,0.08111804826116818,0.13187730405062797
0.01369697578720046,0.11713825857966488,0.09162185369253338,0.07269527793065977,-0.00661458168193352,0.0938093801993421,0.05545573502715323,0.0829517094859631,0.039140094792181626,0.018354036273575097,0.08969594975100606,0.142037258418568
0.02039363526747067,0.12693126989659625,0.09989949141324214,0.08116051992320722,-0.000574885830999957,0.10241045956128693,0.06139352453200171,0.09053639662512072,0.04934717526257334,0.023346881830897115,0.0986624454282915,0.15224298853965373
0.027472451914578186,0.13682606512370982,0.10869994783357727,0.09001253865070485,0.005790317928694243,0.11148172778918822,0.06757220788175947,0.09849935550639956,0.05978029217026453,0.028656180018044822,0.10794716159287532,0.1624501089939584
0.034942207800592054,0.146776343485205,0.11797149624724926,0.09918209567472919,0.012485136187527564,0.12094447114558787,0.07400218152757757,0.10677371808077848,0.07038699419076727,0.03428825291259664,0.11748136114241589,0.17261403407884657
0.04281771994611016,0.15673566281551854,0.12763187028045705,0.10860187113058953,0.019512763233008795,0.1307224402943565,0.08069335860700962,0.11529441151412807,0.0811153002431793,0.04024858561137563,0.12719817398171523,0.18269033882722308
0.05121184444683475,0.16665742788007287,0.1376014803752649,0.11820640437481389,0.02687551442012232,0.140741801852394,0.08765517217119438,0.12399813558109332,0.09191354460014291,0.046542051616009356,0.13703269584173408,0.19263491384269582
0.06009333686978077,0.1764948903730315,0.1478034137781407,0.12793209397374133,0.034574826177742005,0.1509311383803169,0.09489657518547547,0.13282336266074923,0.10273037685807405,0.05317291287625055,0.146921988298585,0.2024039653293383
0.06937171856729865,0.1862011489172997,0.1581634345399558,0.13771719770352173,0.04261125600863106,0.16122144838245986,0.10244617920502842,0.14171033773660027,0.11351476193716176,0.06014481978997785,0.15680507877353275,0.21195401509168815
0.07895985249946537,0.19572914906452316,0.16860998351598522,0.14750183255011595,0.05098448248944222,0.1715461463068736,0.11040616728600068,0.15060107839658043,0.12421598008136908,0.06746477968577357,0.16662296053299458,0.22124190053474782
0.08877394323408523,0.20503168329508933,0.17907417836590794,0.15722797470929542,0.0596952742499495,0.18184106254532637,0.11870923132034267,0.15943937483305368,0.1347836268584326,0.07518664043205121,0.1763185926885395,0.23022477466398497
0.0987335369466888,0.21406139101812677,0.18948981355380576,0.1668394595866426,0.06879380262539997,0.19204444343330374,0.1272628480984574,0.16817078984281328,0.1451676131598621,0.08326137141109281,0.18583690019688873,0.2388601060853311
0.10876152142053326,0.2227707585715051,0.19979336034816494,0.17628198179755072,0.07824527643088713,0.20209695125000804,0.13597847970005889,0.1767426588270823,0.15531816520094122,0.0916062990965987,0.19512477385991597,0.24710567900518268
0.11878412604660318,0.23111211922183522,0.2099239668218746,0.18550309516722385,0.08797364762495584,0.21194166421835903,0.14477157349417272,0.1851040897915131,0.1651858245207271,0.10014188896938218,0.2041310703246464,0.2549195932304013
0.12873092182360937,0.23903765316446896,0.21982345785222784,0.19445221273067723,0.09790528392824123,0.22152407650499345,0.15356156213913602,0.19320596334618828,0.1747214479820499,0.10879174551736953,0.21280661208325816,0.2622602641683127
0.1385348213579895,0.24649938752349987,0.22943633512092132,0.20308060673273648,0.1079689688234692,0.23079209822026478,0.16227186358259724,0.20100093270561964,0.18387620777151414,0.11748261223559983,0.22110418747308086,0.26908642282670764
0.14813207886390825,0.25344919635176216,0.2387097771140551,0.21134140862803844,0.11809590155545567,0.23969605541824432,0.17082988106151578,0.20844342368874866,0.19260159139949704,0.1261443716262246,0.22897855067659684,0.2753571158138415
0.15746229016325644,0.25983880063083153,0.24759363912213314,0.21918960908103036,0.12821969713110784,0.24818869009671995,0.17916700310216302,0.21548963471894644,0.2008494017001502,0.13471004519850865,0.23638642172144017,0.28103170533843425
0.1664683926856525,0.2656197682710249,0.25604045324006264,0.22658205796597106,0.13827638631942274,0.25622516019719677,0.1872186035201214,0.22209753682401376,0.20857175683139803,0.14311579346882977,0.24328648648039725,0.28606986920967037
0.17509666546844097,0.27074351411139996,0.26400542836715457,0.23347746436692962,0.14820441565148817,0.26376303960489733,0.1949240414202848,0.2282268736361811,0.2157210902749389,0.15130091596067835,0.24963939667140653,0.29043160083719943
0.18329672915669334,0.27516129991975624,0.27144645020712366,0.239836396577786,0.15794464742048261,0.27076231814876084,0.20222666119685817,0.23383916139210856,0.22225015083624453,0.15920785120465752,0.25540776985755864,0.2940772092311356
0.19102154600320786,0.278824234392634,0.27832408126808794,0.24562128210223122,0.1674403596816747,0.2771854016014438,0.20907379253335862,0.23889768893288563,0.22811200264456047,0.16678217673848383,0.26055618944709635,0.29696731900205786
0.19822741986850942,0.28168327315531483,0.284601560862569,0.25079640765376726,0.17663724625242389,0.2829971116793198,0.21541675040261427,0.24336751770403178,0.23326002515290498,0.1739726091069863,0.2650512046934148,0.2990628703610091
0.20487399622085012,0.2836892187618213,0.2902448051074923,0.2553279191557067,0.18548341671218022,0.2881646860424798,0.22121083506676403,0.24721548175549588,0.23764791313807085,0.18073100386210667,0.26886133069506096,0.30032511911949805
0.21092426213620818,0.2847927206949176,0.2952224069241869,0.25918382174117294,0.1939293964024836,0.29265777829473133,0.22641533207725884,0.2504101877416564,0.2412296767006239,0.18701235556289997,0.27195704839573415,0.3007156366894969
0.21634454629828898,0.28494427536610883,0.299505636038385,0.2623339797531006,0.20192812642696542,0.29644845798359937,0.23099351227486106,0.2529220149213216,0.24395964126490352,0.19277479777553383,0.2743108045842858,0.30019631008344383
0.22110451899852432,0.2840942261156412,0.3030684389802229,0.26475011674423465,0.2094349636513468,0.2995112106003262,0.23491263178964386,0.2547231151577295,0.2457924475790229,0.1979796030732885,0.27589701189471927,0.2987293419142406
0.2251771921360732,0.2821922936889808,0.3058874390842402,0.26640581547713144,0.2164076807034397,0.30182293757987105,0.23814393204099255,0.2557874129185472,0.24668305171486832,0.20259118303655793,0.2766920488061906,0.29627725039525427
0.22853891921782124,0.2792139105379216,0.3079419364893801,0.26727651792415774,0.22280646597314685,0.30336295630090987,0.24066263973760335,0.2560906052758719,0.24658672506809984,0.2065770882528482,0.2766742596430076,0.29280286934031663
0.2311693953583805,0.2752354093081817,0.30921390813898975,0.26733952526749116,0.22859392361246067,0.30411300008583625,0.24244796687748382,0.2556101619062305,0.24545774357115058,0.2099080083167784,0.27582395457462994,0.28826796127883436
0.23305165728009,0.27034977699472423,0.3096880077808193,0.26657399789912073,0.23373507353546508,0.3040572182007606,0.24348311074795334,0.254325325090579,0.2432800181263432,0.21255777183008062,0.2741234096156701,0.28266583376152865
0.2341720833130157,0.2646468452798129,0.3093515659670229,0.2649609554208456,0.2381973514183338,0.3031821758555109,0.2437552539256418,0.2522171097143038,0.2401362711533005,0.2145033464015997,0.27155686662589246,0.2760892243161237
0.23452039339495012,0.2582132905330102,0.30819459005415817,0.2624832766442765,0.2419506086993316,0.30147685420363163,0.2432555642764915,0.24926830326721983,0.23612023881096325,0.21572483864729347,0.26811053331021334,0.268641204856765
0.23408964907141255,0.2511326338111787,0.3062097642031865,0.2591256995908342,0.24496711257881326,0.2989326503423846,0.2419791949557555,0.24546346584357276,0.23132205798594077,0.2162054941902326,0.2637725832187012,0.26042120475272845
0.23287625349564897,0.24348524085848075,0.3033924493794723,0.254874821491751,0.24722154601922441,0.2955433773127488,0.23992528440799832,0.24078893014203764,0.22582826629251143,0.2159316976606006,0.25853315574657704,0.2515250108284207
0.23087995142863238,0.23534832210637827,0.29974068335278425,0.2497318593226223,0.24869100774510103,0.2913052640994204,0.23709695636709593,0.23526969799602987,0.21972180207262212,0.21489297269569396,0.25238610739063494,0.24204476736337896
0.22810382923906203,0.22679593267363296,0.29525518069729445,0.24377514392761787,0.24935501224306963,0.28621695563081256,0.23350131985623612,0.22900892276234028,0.21308200439588865,0.21308198193992156,0.2453941607527661,0.23206897609227078
0.2245543149033645,0.2178989723663061,0.2899393327915783,0.2370992776344366,0.24919548976184755,0.2802876528394159,0.22914946918791693,0.22209037182991326,0.2059846130595952,0.21049452704480598,0.2376569467217551,0.22168249620489405
0.22024117800569284,0.20872518567775905,0.2838063443021982,0.22979434360385875,0.24819678631224207,0.2735994818374242,0.2240564839639489,0.21459448796460534,0.19850176858869484,0.2071295486689818,0.2292612063163112,0.2109665443461777
0.21517752973792675,0.19933916178865232,0.2769342321269029,0.2219467202408948,0.24634566366715135,0.2662460289334899,0.2182414290754532,0.20659882069068175,0.19070201223580946,0.20298912647819706,0.22029049592294178,0.1999986946161806
0.20937982289967297,0.18980233456694662,0.26941674298638024,0.21363908119478475,0.2436312993615641,0.2583138766355347,0.21172735470286325,0.19817802629081616,0.18265028598122987,0.19807847914531235,0.21082518729595173,0.18885287857009295
0.20286932186237727,0.18017298256790187,0.26134182436856024,0.20495039535899975,0.24003688606159987,0.249886039809806,0.2045412963159227,0.18940386780609048,0.1744079325329148,0.19239829406932987,0.20094246755744474,0.17759938521823468
0.19570418664682096,0.17050622903407825,0.25279360060462586,0.19595592687124047,0.23559066571451065,0.24104196568087732,0.1967142746736877,0.1803452150359956,0.1660326953264927,0.1860051154997169,0.1907163391973217,0.16630486102605663
0.18797461249308517,0.16085404189533517,0.24385237286901443,0.1867272351134381,0.23037480303382296,0.23185753383164834,0.1882811741570536,0.17106804453843064,0.15757871852525995,0.17898940682033634,0.1802176200732819,0.15503230991414046
0.17976805804557489,0.15126523376883214,0.23459461917941676,0.17733217471175378,0.22446948446681225,0.22240505620334483,0.17929370700401115,0.16163543962970345,0.14909654702018202,0.171438163102333,0.1695139434108228,0.14384109325819758
0.17116779252181297,0.14178546195902791,0.2250929943967774,0.16783489553657907,0.2179520823012371,0.21275327709551844,0.16984296453907888,0.15210759038453042,0.14063312642989326,0.16343490733774665,0.1586697578032392,0.13278692988907054
0.16225289571244134,0.1324572284576816,0.21541633022529474,0.15829584270253544,0.21089715466533995,0.20296737316604688,0.1600224931911253,0.14254179363603614,0.1322318031006961,0.15505969043951315,0.1477463272116247,0.12192189609273255
0.15309825798122131,0.12331987994385127,0.20562963521242072,0.14877175656847483,0.2033764455278471,0.19310895343113432,0.14992156352941832,0.13299245297575418,0.12393232410656238,0.1463890912414635,0.13680173096487042,0.11129442561028685
0.1437745802650329,0.11440960778389578,0.19579409474886175,0.13931567273747944,0.19545888469796885,0.1832360592653108,0.13962517026362598,0.12351107875362706,0.11577083724913288,0.13749621649832466,0.12589086375966618,0.10094930963796792
0.13434837407387365,0.10575944803147175,0.18596707106857632,0.12997692205686084,0.1872105878253984,0.17340316440143147,0.1292140322438141,0.11414628807800409,0.10777989105771552,0.12845070088571786,0.11506543566049808,0.0909276968271393
0.12488196226088542,0.09739926934835694,0.17620208275143528,0.12080109766267942,0.1786948357634785,0.16366114893600406,0.1187643951010762,0.10494377174137576,0.09998854564265186,0.11931857868914288,0.10437393912670215,0.08126687672838757
0.11543349333606333,0.08935554846874419,0.1665484237052089,0.1118294423817019,0.16997169095822642,0.15405681612318115,0.10834436260247884,0.09594567941423662,0.09242443331010237,0.1101598986748992,0.09386103608971351,0.07199625430871352
0.10605694013689859,0.08165139105255698,0.15705119855187027,0.10309890562524636,0.1610980330754529,0.14463293725157317,0.09801423736929815,0.08719067674400323,0.08511356718647708,0.10102894560428458,0.08356761487706946,0.06313772381037742
0.09680208657744388,0.07430673954963232,0.14775167535545308,0.09464271050251873,0.1521279141290593,0.13542869897276075,0.08782991712936311,0.07871451451249534,0.07807843360194586,0.09197644826956133,0.07353135762634232,0.05470939534620067
0.0877145271448706,0.06733838109710702,0.13868729902324534,0.08649037536695475,0.14311257197343122,0.1264797202966501,0.0778430237509021,0.0705500502599414,0.07133791961434713,0.08304966338388767,0.06378676184290238,0.0467257364841352
0.07883566689946915,0.060759947519417566,0.12989169130578815,0.07866771381622127,0.13410043030343777,0.11781805259147399,0.0681009032425432,0.06272724828497794,0.06490731300918781,0.07429237558131724,0.054365140399918126,0.03919757224726326
0.07020272147464884,0.054581915328300194,0.121394650796877,0.07119683469221427,0.1251370986544317,0.10947217958379062,0.058646625753314245,0.05527317964465067,0.058798302299644355,0.06574489741679859,0.045294621538355735,0.03213208511379795
0.06184871707693745,0.04881160572279098,0.11322215293356071,0.06409614208106065,0.11626537240224982,0.10146701735848493,0.049518985572642185,0.048212022154413316,0.05301897672656098,0.05744406936617655,0.03660014886697954,0.025532815017082544
0.053802490485981874,0.04345318458922575,0.10539634999614184,0.05738033531311728,0.10752523276321257,0.09382391435876747,0.040752501130353794,0.04156506038812844,0.04757382625845122,0.04942325982619085,0.028303481362351945,0.01939965934559094
0.04608868905454779,0.038507662501239506,0.09793557110817686,0.05106040896297095,0.0989538467941239,0.08656065138617505,0.032377414996675395,0.0353506856780671,0.042463741591497135,0.041712365114477186,0.02042319336883336,0.013728872942927755
0.03872777070851964,0.03397289471976756,0.090854322236476,0.04514365284943898,0.09058556739227171,0.0796914416005702,0.024419693882232807,0.029560549704873176,0.03768601414954939,0.034337809469566244,0.012974674598582113,0.008513068107828032
0.031736003946900494,0.029852154308142177,0.08416328619110293,0.03963365203556879,0.08245193329542781,0.07322693052014208,0.016901028638051332,0.02411441333483648,0.033234336084127694,0.027322545050884543,0.0059712783668407765,0.0037412145941575227
0.025125467841812636,0.026190669227825404,0.07786932262537549,0.03453028682863779,0.07458166908184734,0.06717419602140524,0.009838834255556164,0.01904089249286522,0.029098800274420127,0.020686051938754037,-0.0004635020081958374,-0.0006013603890878912
0.01890405203849695,0.022921498640399218,0.07197546803586491,0.029829732780153894,0.06700068517026951,0.06153674833920097,0.003246249866571571,0.014369945878994997,0.02526590032728371,0.014444338134391846,-0.006307595205607131,-0.004532972177781496
0.01307545675531296,0.019950221180903272,0.06648093576239628,0.0255244606858549,0.059732077819917184,0.056368452541103224,-0.002867861256678428,0.01011801314783841,0.021718530577243933,0.008609939559911135,-0.011640718353415205,-0.008075578652666017
0.007639192783739279,0.01717913719941716,0.0613811159880483,0.02160769989435184,0.052796129130497076,0.05216197794012318,-0.008498911701569994,0.006288014908584709,0.018439603974072856,0.0031919200583199053,-0.01654223326935872,-0.011255317467126269
0.002590581488373398,0.01450726876106088,0.056667575739153854,0.018106628976767396,0.04621030704219947,0.048826948107656504,-0.0136465899150802,0.002869352725000683,0.015331417656314898,-0.001804128606477634,-0.02109114646089327,-0.014191300861688518
-0.0020792451930687628,0.011830359645994746,0.052450304484525395,0.01498003109378507,0.03998926533569844,0.04611588243556836,-0.0183148602037864,-0.00016209088457044135,0.012201520874252338,-0.006376086749682437,-0.025366109125191164,-0.017079878507352618
-0.006383344749751977,0.009040875349419485,0.04877990595131157,0.012161245132064714,0.03414484363215178,0.04380051120906235,-0.02251196273386609,-0.0028439524472079307,0.008883034875131233,-0.01052530676559972,-0.02944541714914129,-0.020089828963106623
-0.010338964097722753,0.006028003081575766,0.04552781295860488,0.00957687516852317,0.02868606739320132,0.04167177560668063,-0.026250413531097548,-0.005227387535414282,0.005239973577069425,-0.01425661312763913,-0.03340701110934959,-0.023359016476047382
-0.013967539579908228,0.0026776517677447606,0.04256932828762336,0.007146790470334427,0.023619147920972135,0.03953982770030383,-0.029547004480859555,-0.007377070767115157,0.0011672435690564947,-0.017578302388314718,-0.03732847627213864,-0.02699439098138031
-0.01729469696611717,-0.0011275479517520257,0.03978381526817023,0.0047841254949300945,0.018947487582344706,0.037234030455150884,-0.03242280332813114,-0.009371195805658847,-0.0034093558890463567,-0.020502143179245536,-0.04128704259354792,-0.03107198810241985
-0.020350251453039207,-0.005508243721552954,0.03705469777863251,0.0023952798899985906,0.01469087781624566,0.03460295772977933,-0.03490315367749184,-0.011301475359816954,-0.008533132866505855,-0.022947472472996597,-0.04535958471933317,-0.03563692915058932
-0.02316820766424519,-0.010588361471256014,0.03426946024598218,-0.00012008150651404703,0.010841270125473574,0.031514394276085184,-0.03701767499312156,-0.013273141183784047,-0.014216502761717292,-0.02473996632842851,-0.04962262198496755,-0.04070342112542058
-0.025786759650187556,-0.016495105415418904,0.03131964764577542,-0.0028690286664047257,0.007355968388335923,0.027855335739302794,-0.038800262598800796,-0.015404944077177544,-0.0204409883022039,-0.026043720945079417,-0.05415231841564052,-0.04625475671455445
-0.028168275522304786,-0.02335895805355931,0.02810086550215289,-0.005965366371213059,0.004186496966861488,0.023531988658005105,-0.04027990473860739,-0.01782915388503787,-0.027157219544617382,-0.027031889781213757,-0.05902448272625858,-0.05224331429374059
-0.030341829062837333,-0.03131368017015416,0.024512779887840182,-0.00952963421222141,0.0012786007067995629,0.01846977046410348,-0.041412683426324995,-0.02069155949782868,-0.03428493387473763,-0.027866921855541592,-0.06431456832144478,-0.0585905579268374
-0.03253318854781898,-0.0404963108346404,0.020459117424146873,-0.013689106590454869,-0.001427755062378782,0.012613309482847744,-0.04231745949179416,-0.02415146885143623,-0.041712976007472674,-0.028700561747218585,-0.07009767329553915,-0.06518703736581204
-0.034951707627367025,-0.051047167401414725,0.015847665280967194,-0.01857779271668158,-0.0039983845274821055,0.005926444932826177,-0.04315675229774571,-0.028381708927170343,-0.049299297986858795,-0.029673849595846416,-0.07644854043259824,-0.07189238805074057
-0.03778793127038784,-0.06310984550983346,0.010590271176780006,-0.02433643661141186,-0.00650488139159734,-0.0016077730740343948,-0.04408866251957834,-0.0335686257517633,-0.056870959186060555,-0.03091712110147224,-0.08344155720639562,-0.07853533110980776
-0.04121359576457657,-0.07683114710257033,0.0046028433786485,-0.03111251710489937,-0.009024618874090892,-0.00998708353246878,-0.04526687214535789,-0.03991208439737072,-0.0642241263073707,-0.03255000752458896,-0.0911507557804212,-0.0849136733593074
-0.04538162871641712,-0.09212062949640269,-0.002194649297779787,-0.03906024783714012,-0.011640749710607683,-0.01919001454387342,-0.046840644475817796,-0.047625468981571016,-0.07112407338221034,-0.03468143568613493,-0.09964981300788228,-0.09079430730364169
-0.050426149051182506,-0.1081364873483288,-0.009878177488272341,-0.04834057725787305,-0.014442206153071848,-0.029175883316305905,-0.04895482412435905,-0.0569353429812976,-0.07730518177112866,-0.03740962796749463,-0.10901205043170241,-0.09591321113532207
-0.05646246701293428,-0.12389098728015818,-0.018519651280012678,-0.059121188626579765,-0.017523699969686397,-0.03988479616448587,-0.051749837017050146,-0.06794954001945837,-0.08247094016380324,-0.04082210231049781,-0.11931043428452208,-0.09997544873496839
-0.06358708416452297,-0.1383967396293682,-0.02818692021159947,-0.07157650001248475,-0.020985722444933283,-0.051237648509794106,-0.05536169039262691,-0.08043106350293149,-0.08629394457903965,-0.044995672217420075,-0.13061757548869857,-0.10265516967130965
-0.0718776933875879,-0.15066669844910346,-0.03894377327304699,-0.08587062881746554,-0.024934544379573417,-0.06313612488027302,-0.05992197280249304,-0.0940130059343883,-0.08841589836477197,-0.049996446750982894,-0.14300572965630579,-0.10359560920118346
-0.08139317888255737,-0.15971416150817586,-0.05084993890578519,-0.10147819723053844,-0.029482216090646593,-0.07546269891062671,-0.0655578541107194,-0.1082387313195746,-0.08844761219806233,-0.05587983053435311,-0.1565467970891347,-0.10240908826953622
-0.0921736161686482,-0.16455277029106516,-0.06396108500265939,-0.117458163903426,-0.03474656741147161,-0.08808063334222067,-0.07239208549404447,-0.12256187516731078,-0.08596900408510112,-0.06269052375114342,-0.17131232277869257,-0.09867701350942315
-0.10424027208386653,-0.1641965099979182,-0.07832881890793031,-0.13287113110249607,-0.040851207691646206,-0.1008339800230818,-0.08054299944187421,-0.13634634448949187,-0.08052909936120707,-0.07046252214541218,-0.18761752141677066,-0.09194987724200841
-0.11759560478500682,-0.15765970954454947,-0.09452414085359728,-0.14678072737443523,-0.04792552579704726,-0.11354757990789889,-0.09012450975628206,-0.1488663178010874,-0.07164603069082703,-0.07921911702166355,-0.20439355643942775,-0.08174725747656493
-0.13228265045864862,-0.14395704156244093,-0.11262649240056094,-0.158253607546248,-0.05610469010983012,-0.12602706305802208,-0.10124648708094194,-0.15930624512014147,-0.05880703806753629,-0.08897289524484703,-0.2196826120147307,-0.06755781791047406
-0.1478887623389015,-0.12210352239874182,-0.1305116569488336,-0.16635945272525773,-0.06552964852842957,-0.138098138826738,-0.11408436236650092,-0.1667608479677729,-0.04146846881403792,-0.09972573924035838,-0.2317309980689547,-0.048839307929226736
-0.16334357640240543,-0.09111451211626903,-0.14619950806194054,-0.17017097029910613,-0.07634712846755906,-0.14999212266642964,-0.12809939741562001,-0.17023511936817484,-0.01905577758216364,-0.11146882699403854,-0.23898966098468089,-0.025018562606421935
-0.1775905251518038,-0.05000571449350664,-0.1579346861113914,-0.16876389393575303,-0.08870963685821126,-0.15975318280710038,-0.14238100368908596,-0.16864432384861527,0.009036473647126533,-0.12418263205217428,-0.24011418360079634,0.004508497296232399
-0.1896085686435992,0.0022215866820338766,-0.16418659827668042,-0.16121698358347694,-0.10308422016233128,-0.1649877615918413,-0.1560194184588549,-0.1608139974394365,0.04344461556374471,-0.13796082226745499,-0.2339647852124939,0.04037686532891906
-0.19841219448815378,0.06628456574836235,-0.16364941854528647,-0.14661202547087468,-0.12003498765267316,-0.1636638685966068,-0.1681057048080524,-0.14547994767405567,0.08483587152847498,-0.15384230553695755,-0.21960632157127236,0.08325244935371226
-0.20305141784968875,0.1416456549963253,-0.15524208771267275,-0.12403383210686166,-0.1380549373050294,-0.15411108063021475,-0.17773175163097335,-0.12195673337447731,0.13390835757297198,-0.17013913410699966,-0.19630828488493643,0.1338320715445779
-0.20261178144628483,0.22723470399547582,-0.13810831338228732,-0.09257024228067136,-0.15559022920949175,-0.13502054173434602,-0.18399027363308176,-0.08973302718731613,0.19139108239976346,-0.1846136895097876,-0.16354480381759662,0.192843468387373
-0.19621435554988206,0.3216015254620862,-0.11161656996556236,-0.05131212106185604,-0.17121849720875287,-0.10544496318354493,-0.18597481133101149,-0.047496316461045684,0.2580439473822485,-0.1952913401339962,-0.12099464348966969,0.2610452906798441
-0.18301573798627982,0.4229158952591507,-0.07536009868191483,0.0006466401997139394,-0.18364884889810565,-0.06479862348521907,-0.18277973105256534,0.0055636698784231435,0.3346577465646974,-0.2004604412247687,-0.06854120547787756,0.33922710353163166
-0.16220805413055067,0.5289675523984796,-0.029156907559079147,0.06434492164984495,-0.191721865617127,-0.012857368386589843,-0.17350022490722075,0.06974054153168148,0.42205416665408285,-0.1986723348608049,-0.006272527855217286,0.4282093864163134
-0.1330188786267577,0.6371662348460708,0.026950222886870767,0.1398025738309832,-0.19440946049545454,0.05024127048803205,-0.1572318073455229,0.14481151446260598,0.5210856475582091,-0.18874095888199516,0.06551803259132066,0.528844421566333
-0.094711036219297,0.7445417706217673,0.09269372519983188,0.22552836492498832,-0.19081451727841287,0.12399777378822406,-0.13306903425428412,0.23003809184708482,0.6304006733699327,-0.16974185188332788,0.14633006459304038,0.6398681601205205
-0.04658281776818955,0.8477439789939563,0.1675812606577536,0.3197405129476275,-0.18017128205123734,0.20755096181830301,-0.10010689220641827,0.3241653255264027,0.7421211737216655,-0.14101323238333968,0.23545798498675904,0.7532664611517714
0.012031958312684133,0.9430426423777437,0.2508957237306014,0.4203954350798865,-0.16184547465176388,0.29967808764972254,-0.05744119358600784,0.4254216059526659,0.8499493268232254,-0.10215630575703558,0.33199157415298886,0.8626200411163489
0.08206938519759428,1.0263275076606815,0.34169521780935147,0.5251877185073602,-0.1353342433389913,0.3987948162051574,-0.004168607815080331,0.5315186378737374,0.9485430669583237,-0.05303508715531254,0.434816032355803,0.9625000643693498
0.16410842801496853,1.0931082916578314,0.43881295533623577,0.6315500004308594,-0.1002659782643533,0.502955138194182,0.06073777295891593,0.6396513402821772,1.0334272958797848,0.006224327142019675,0.5426146366867413,1.048355301264613
0.25578009760097287,1.1385146764931742,0.5408573423605267,0.736653069656699,-0.056400469398237105,0.6098514429805376,0.13739159973730858,0.7464979311245283,1.100994101507005,0.07523314280957294,0.6530665061062244,1.1165117980243573
0.35442599955800974,1.1575419293471298,0.6462120181064651,0.8374059141359314,-0.0036289804317928397,0.7168145526804129,0.22443087564437791,0.8482199669410787,1.1485028602655611,0.15333957878985927,0.7606863601587697,1.1641727222544815
0.457337598893554,1.149742364959745,0.7530200558082583,0.930455720984829,0.058025751191229,0.8208137221771327,0.32019634322694146,0.940586975502118,1.1740802371313002,0.23962886716892437,0.8599869405413952,1.1894183628780066
0.5617562200201541,1.1177800105902198,0.8576489679838444,1.0121878764848806,0.12840951427447744,0.9184566391211586,0.42276565911631536,1.0196847608829596,1.1767201856303362,0.33292325317634325,0.9463453280097185,1.1912061301350831
0.6648730467554308,1.0644475930737465,0.9543212090847436,1.0787259660827966,0.20723662386900044,1.0056664728001796,0.5299533940283159,1.081719039468542,1.1562839478390519,0.4317819951852242,1.016002942377957,1.169370555582984
0.7638291223220777,0.9926420901165295,1.03802015739464,1.1259317743905033,0.29408992127324607,1.077659945554836,0.6393110327632582,1.1237433454252266,1.1135000543841,0.5345013647122059,1.0660655425189296,1.1246232920961095
0.8557153493478569,0.9053647302957895,1.1047016921606043,1.149404992523113,0.38842077403305625,1.1311555094671055,0.7481269742059513,1.1437576919303247,1.0499643244424042,0.639114646417455,1.0945032263640528,1.0585531138659876
0.9375724898656183,0.8057209930597437,1.151294193593104,1.1455540263467319,0.48954907594168834,1.1638017833205447,0.8534265313257213,1.1407085711721006,0.9681398657411483,0.743392138104684,1.1001504309033483,0.973625916401261
1.006391165313269,0.6969206087276333,1.1756985428659852,1.1161479132507377,0.5961533878846347,1.1741241818429053,0.9519719311763757,1.1144889543497682,0.8713563930460794,0.8448349068287818,1.082705932185431,0.8731807215070425
1.0591118565337947,0.5822775584897082,1.1767881221164846,1.0645495951491606,0.7037127803275492,1.1615249157061485,1.0402623148962271,1.0659382916734919,0.7634273390975637,0.9394563273529122,1.0427328453175198,0.7615750374910333
1.0926249037752531,0.4652100744072277,1.15440881444523,0.9940897191263116,0.8069773872855219,1.1262829915264416,1.1145337377080877,0.9968425123643877,0.6484734043903992,1.0219834971771342,0.9816586244654321,0.6434883890455954
1.1037705066907753,0.3492406394124645,1.1093790039162355,0.9080666374367823,0.9013611363277526,1.069554211864156,1.17075916891927,0.9099340246545246,0.5305026187302921,1.0881845865577748,0.9017686270264622,0.5231147988912349
1.089427089805071,0.23799598730870086,1.0434895755569038,0.8097464075054449,0.9829449587455412,0.9933711752238708,1.2046484919215839,0.8088917157869198,0.4130576370794911,1.1348163804865257,0.806214642782532,0.4041297261246347
1.0496693805917174,0.13520710277023054,0.9595039153580263,0.7023627919274513,1.048476789552289,0.9006432760543692,1.2118464376945786,0.6983409520155445,0.2992157395567894,1.1596242786904414,0.6996446778602602,0.2896900662186535
0.9885304376722314,0.04438514299722825,0.8611579102737832,0.5891172584682351,1.095371567483496,0.7951567047486405,1.1922516237651357,0.5837539108594211,0.19158883143752373,1.1613422956319415,0.5866578490108291,0.18243415102232535
0.9100798985870849,-0.034150855434287655,0.7528608620419391,0.47317898006351006,1.121711234996763,0.6815744476438809,1.1491932622408558,0.46901786112732097,0.0923234431535742,1.1396930605088076,0.4713411170601247,0.08448174876086087
0.8181585578777407,-0.10045484889112498,0.6384924146811185,0.3576848348192697,1.1262447382717922,0.5654092993564889,1.0860326722107878,0.3569783680871183,0.003100730293364851,1.0953878172541855,0.3572692869087335,-0.00256593596435329
0.7163783670866494,-0.1545028694192789,0.5219985648330757,0.2457394060117891,1.1083880272103848,0.4506559590295094,1.0060964599810112,0.2503282583355181,-0.0748635263981361,1.0301264245365858,0.24750500753194554,-0.0776262621757554
0.60812243475725,-0.19647944470447123,0.4068901014034158,0.1404149820876237,1.0682240554364422,0.33962182471838714,0.9126765190746375,0.15131945249564807,-0.1408189210194173,0.9465973557598808,0.14459877197975113,-0.14013515251960648
0.4965450264339719,-0.22677759807215084,0.29618851925027134,0.04475155666360861,1.0065005272484613,0.2346757150598149,0.8090300302318092,0.06176296521705861,-0.19448042251242337,0.8484776990633085,0.05058891737684366,-0.19004709326599284
0.38457156466223363,-0.24599884848749345,0.19242601918430122,-0.03866558807662493,0.9254169515188843,0.13779506537363992,0.6983794614097004,-0.016971094824276684,-0.23602837466255586,0.7403571160675365,-0.03299837507738146,-0.22783513430882313
0.2748986289884425,-0.2549532105554017,0.09764550796869169,-0.1097933685744729,0.8296264834362245,0.05056592766286189,0.5839125677825168,-0.08395352492596153,-0.26610849609867193,0.6263708879826512,-0.1051490801088277,-0.2542798592691097
0.16999395595999486,-0.2546591945205048,0.013400598319155807,-0.168832171100957,0.723767891645406,-0.025817029386364928,0.4687823917414942,-0.1386960283591766,-0.285723224725916,0.5103863395731885,-0.1653613283686955,-0.2689605745557508
0.07209643912527587,-0.24634380626715918,-0.05924439109606622,-0.2160390405242665,0.6120385906272083,-0.09055052040473334,0.35610726289490136,-0.18115121436868042,-0.2947257539490951,0.39595141603266887,-0.21359101641400105,-0.27337564838600653
-0.016783870966338665,-0.23144254731944847,-0.11971443565620694,-0.2518176823027663,0.49819464069826463,-0.14322264333978235,0.24897079806803787,-0.21171259817280746,-0.29439915355826285,0.2861057115968673,-0.24868596520930802,-0.269420653387821
-0.09486576676448565,-0.21159941484118214,-0.16792380478797173,-0.2767184624849968,0.38555074801106404,-0.18381287945589755,0.1504219013032343,-0.23121460096347074,-0.2865324436484653,0.1833804695438153,-0.2714011254346236,-0.2588374607308945
-0.16079912596175464,-0.18866678603771464,-0.20427606196553966,-0.2914384077096738,0.2769802645539494,-0.21269209333431133,0.06345818074162744,-0.2408729078491912,-0.2727660198276829,0.08979858219379899,-0.2834830990023031,-0.24321424012668263
-0.21471490468836757,-0.16434702070176127,-0.22963533776984246,-0.29682120520568833,0.17491518815111878,-0.23062253287310172,-0.010843298783379515,-0.24112977709142863,-0.2545916532168303,0.006874590909360729,-0.2865692701858149,-0.22398545982839677
-0.2571305912841573,-0.1396385437848219,-0.2438996574318896,-0.2938572027921076,0.08134616246262558,-0.23875782928719355,-0.07290800901667505,-0.23340306798326987,-0.23335249044975687,-0.06438531390470195,-0.28218780561973983,-0.20243188663100398
-0.288634422776163,-0.1153678075726661,-0.2480820476486614,-0.2836834088781733,-0.0021775230156227806,-0.23836477974447837,-0.12287653609045152,-0.2194932640364438,-0.21024305367324614,-0.12348329280133603,-0.2717576542997718,-0.17968058587122693
-0.3099091076049984,-0.09222430770288004,-0.2440111132801191,-0.26758349246330326,-0.07454793295186363,-0.23011258849041424,-0.16106299334886542,-0.20102993499728156,-0.18630924054701595,-0.17042985729123267,-0.2565885475827168,-0.15670492142754425
-0.3217318256248506,-0.07076058316486658,-0.23337018956135502,-0.24698778313709088,-0.13502897276229422,-0.21568083003719898,-0.1879550213480367,-0.17947173684671638,-0.16244832424371883,-0.20574386984282825,-0.2378809991864943,-0.13432455572018986
-0.32497422810348103,-0.05139221629984493,-0.21769734210259273,-0.22347327107930426,-0.18335394582772158,-0.19671158773450753,-0.20421378785604916,-0.15610641180028387,-0.13940895344894147,-0.2297665040205075,-0.21672630519013603,-0.1132054497111534
-0.3206024377222248,-0.034397832800851305,-0.19838536688918723,-0.1987636070598879,-0.220117845114181,-0.17467435951582305,-0.21067398785295025,-0.13205078830812164,-0.11779115236120499,-0.242546314011663,-0.19410654403378658,-0.09385986290418039
-0.3096770485759913,-0.01991910171273817,-0.17668179028162442,-0.17448296638072552,-0.2460604128697701,-0.15086605789843727,-0.20834384353075122,-0.10825078105496956,-0.09804632069196502,-0.24588215475160566,-0.17089457651870332,-0.07664635334477196
-0.2933531261732636,-0.007960735432174846,-0.15368886901552192,-0.15125780376635217,-0.26200688150450774,-0.12641100998345017,-0.19840510429342711,-0.0854813909601696,-0.08047723366561152,-0.24150786547805256,-0.14785404580725625,-0.06176977762018485
-0.2728802074360988,0.001609510292352863,-0.1303635902016282,-0.129483435161818,-0.2688679735903333,-0.10226095745577016,-0.18221304675691657,-0.06434670517766605,-0.06523804201946848,-0.23102035291736295,-0.12563937742292794,-0.04928129085943152
-0.24960230070012848,0.009060836360542522,-0.10751767132582302,-0.10947814857231711,-0.26763990186110775,-0.07919505658411403,-0.16129647474912223,-0.045279897096005155,-0.05233427200379506,-0.2158795912845385,-0.10479577925031414,-0.03907834673327991
-0.22495788571455716,0.014799400320274998,-0.08581756024911773,-0.09147633801753902,-0.2594043692126124,-0.057819878221006996,-0.13735771930990998,-0.028543226338335732,-0.04162282538178435,-0.19740862228322298,-0.08575924153512263,-0.030904697454254185
-0.20047611308445507,0.01936831636761447,-0.06578443520765442,-0.07562850353166897,-0.2453285687025499,-0.03856940780278255,-0.11217984910705386,-0.014228038762408355,-0.03281197942956363,-0.17679355510570258,-0.06885653688417503,-0.024346980497697505
-0.17726017735861896,0.023319239204402754,-0.04779420481270687,-0.06200125116338774,-0.2266651835505437,-0.02170504534958259,-0.08688067926021927,-0.002254766460576209,-0.02547604418705435,-0.1550835664329057,-0.05430522026540428,-0.018961832207725682
-0.155623319996136,0.026678413001871834,-0.0320775080506798,-0.05057729297587131,-0.20475238713813834,-0.0073156054653577,-0.06218119622197829,0.007627075500524464,-0.019294092091504053,-0.13319090043440304,-0.04221362900785687,-0.014549871844697457
-0.1357861323720523,0.029553513939959218,-0.018719714283109253,-0.041255447046791384,-0.18101384300879925,0.0046826826621337095,-0.0386888514066263,0.01584528465125129,-0.014095696814188135,-0.11189086876840793,-0.03255289935622265,-0.010954857410952916
-0.11790806194358773,0.03206695859157009,-0.007660923246662934,-0.03385063746831493,-0.1569587048679127,0.014546175261324415,-0.016892910892066793,0.022704953861644235,-0.009724754947431236,-0.09182185058177533,-0.02475990699008377,-0.008030456515712978
-0.10208742696432646,0.03432865628535738,0.0013192709373252972,-0.02809397620735087,-0.13398304687124293,0.02267947429769228,0.002835570781313898,0.028394676615200953,-0.006035599040357279,-0.07348528268489622,-0.018449206207633215,-0.00564034866247809
-0.08836167759298409,0.03643583593462169,0.00877234582534149,-0.02363421574593752,-0.11258637999359503,0.02936504300570912,0.02024421555931341,0.0330909854294742,-0.002893919648369686,-0.05724548520153977,-0.013385267910069887,-0.0036600403768016904
-0.07670736503447917,0.03847306650339774,0.014984032868848333,-0.02003757740211524,-0.09300835455033342,0.034808951669601684,0.03519926692433188,0.03695840192208928,-0.00017665636148105415,-0.04332968217428507,-0.009348803818630888,-0.001976650686884622
-0.06703990509106078,0.040512413822756166,0.020113187860418418,-0.016827273803427117,-0.07542546491836442,0.039210690915828475,0.04768516885784932,0.04014982042916487,0.0022288371640534765,-0.03182815944852846,-0.006139007713996041,-0.00048726742190485783
-0.059213569647151465,0.042613446238178795,0.024309920209385494,-0.013923501030807448,-0.05994733210188243,0.04275493240744509,0.05780455067773796,0.04280652182043931,0.004424823275181341,-0.0226909491089178,-0.003573636149317827,0.0009011119820780539
-0.053021486669347244,0.044823234609557845,0.027715592941844454,-0.011282519878413829,-0.04661670373237002,0.04561152884410337,0.06577822703826197,0.04505817349927088,0.006503180322052833,-0.015530056450707569,-0.0014890084502210375,0.002271580482124308
-0.04819564020641809,0.047176352311196525,0.03046282270065132,-0.008822622297259095,-0.03540945406859797,0.04793551396205207,0.07194519793007753,0.04702282940263751,0.008545402658020918,-0.009970968258954202,0.0002599932851970292,0.003697321428412878
-0.04440687038930708,0.04969487523180885,0.032675479745423466,-0.006470076325492666,-0.026234583996625066,0.04986710253413662,0.07676264868023308,0.0488069300011368,0.010622600639641266,-0.005771212428403165,0.0017999241863662953,0.005241608564241565
-0.04126487343113116,0.05238838177451966,0.03446868795253926,-0.004159126088400557,-0.018934221029798647,0.051531690369799044,0.08079944385399923,0.050505302298985914,0.012795500626672519,-0.002705722494218174,0.003238776610244319,0.00695780602602758
-0.038401444339494314,0.05525395285686461,0.035948824815138086,-0.0018319917984051526,-0.013283619308753849,0.05303985431507816,0.08429506089721464,0.0522011598340221,0.015114444982075809,-0.00056683763198008,0.004665980141316171,0.008889368343306996
-0.03580441993824138,0.05827617191078992,0.03721352144312074,0.0005611302449344269,-0.00899115960141415,0.054487352252609325,0.08727352255620982,0.053966102677702174,0.017619392072015266,0.0008356973423123276,0.006152401591594497,0.011069840438734824
-0.03341888844015582,0.06143137708324706,0.03835166256314916,0.0030620676549224547,-0.005698349302991068,0.05595512310162494,0.08985015342520897,0.055860117435102476,0.02033991626585758,0.0016747319722428683,0.007750345000619042,0.013522857628085437
-0.031179974577433545,0.06474646128639434,0.0394433865186461,0.005704671957726774,-0.0029798347014641825,0.05750928681795346,0.09212930567019414,0.057931577244919145,0.023295207936172162,0.002105710160977388,0.009493551635457596,0.016262145620251946
-0.029028855211079053,0.06824166017539306,0.04056008526979596,0.008514818592378664,-0.000567081636715195,0.05920114439402058,0.09420435902890581,0.06021724177946833,0.02649407345873147,0.0022666701712640777,0.011397199990704921,0.01929152051724685
-0.02691275933090593,0.07192579360313021,0.041764404393543945,0.011510406910772673,0.0015538013625067855,0.06106717785884864,0.09615772081084212,0.06274225724468553,0.029934935212510377,0.002278244625433773,0.013457905788483424,0.022604888814201266
-0.024784968055536226,0.07580700366530502,0.04311024308359656,0.014701360177667044,0.0034628158061180553,0.06312905027805638,0.09806082589725965,0.06552015638012619,0.033605831579686704,0.002243660505399432,0.015653721978443315,0.026186247399365564
-0.02260481463240089,0.07989275470042882,0.04464275415042145,0.018089625570683127,0.005232480437441931,0.06539360575385932,0.09997413674117261,0.06855285845896546,0.03748441694564096,0.002248739152656304,0.01794413873776172,0.03000968355410924
-0.02033768443773977,0.08418983328982454,0.04639834402124744,0.021669174180305995,0.006927831233209121,0.06785286942506989,0.10194714336735398,0.07183066928799797,0.0415379616989564,0.002361896268282246,0.02028363699781178,0.03403937495292096
-0.017955014976601295,0.08870434825762762,0.04840467274006434,0.025426001009884056,0.008606421403557059,0.0704840474670969,0.1040183633723342,0.07533228120763828,0.04572335223141934,0.002634141912936913,0.022744134666753443,0.038229589663408
-0.015434295882842805,0.09344173067078525,0.05068065396762335,0.029350970390231018,0.010318321392030524,0.07324952709194603,0.10621534192440212,0.07902477309192073,0.04999875591707062,0.0030990805068629723,0.025359120699289573,0.04256256775005446
-0.012759068919130296,0.09840673383905693,0.05323645498143672,0.033469166173164686,0.01210611887558126,0.0760968765482196,0.10855465176360454,0.08286361034849943,0.054435601681835644,0.0037729108298848457,0.028140037851498257,0.04712228640880792
-0.009918927976938816,0.10360343331501402,0.05607349667577771,0.03778997069517623,0.014004918764567737,0.07903920559779103,0.11104189320174647,0.08679264491864766,0.05906375342215625,0.0046544260214095926,0.031097715296974384,0.051921951076025895
-0.006909519076551748,0.10903522689403984,0.059184453561681095,0.04232058861089584,0.01604234320275625,0.08214950187446753,0.11367169412239077,0.09080939760383011,0.06388932087464697,0.005725013580426708,0.03424236862683001,0.056967435363003006
-0.003732540367061635,0.11470483461433,0.0625532537669425,0.04706746368685144,0.018238531567319364,0.08543735065161116,0.11642770998085863,0.0950116152466645,0.06891755415482348,0.006948655365507761,0.037583599849693665,0.062263631976548384
-0.0003957421263696341,0.1206142987568919,0.06615507903611888,0.05203627880146805,0.020606140468837193,0.08891150864786172,0.11929687093809113,0.09940989942673184,0.074152843757103,0.008271927594806897,0.04113039739171092,0.0678144527189861
0.003088801634541603,0.12676498384554477,0.0699563647305278,0.057231955945068434,0.02315034375129673,0.09258001280103215,0.12231351589125691,0.10401113133871721,0.07959872055480349,0.009655656673821358,0.0448911360965441,0.073622828488155
0.0067352965626769,0.13315757664692104,0.07391479982824924,0.06265865621987331,0.025868832492092316,0.09645018026811006,0.1254905918669777,0.10882121807367189,0.08525785580014511,0.011195006000403393,0.048873577225373,0.07969070927740904
0.010558425761199395,0.13979208617046385,0.07797932692412306,0.06831977984000043,0.028751815002024936,0.10052860842525527,0.12883735793739,0.11384509261901064,0.09113206112424828,0.012913534461534149,0.0530848684568936,0.08601906417561646
0.014566457371496875,0.14666784366842897,0.08216810423441018,0.074217966131465,0.03178891990827862,0.10482117486780153,0.1323624068424498,0.11908671385851338,0.0972222885371353,0.014820660126882448,0.05753154388731902,0.09260788136716049
0.01876689066523896,0.15378350263588395,0.08657434108008451,0.08035509353218036,0.03500284435869114,0.10933303741025621,0.13607366498993195,0.12454906657232481,0.10352863042772933,0.016925116527510456,0.06221952403037924,0.09945616813193921
0.023166456044377264,0.1611370388107089,0.09120648052233532,0.08673227959195678,0.03840564039888843,0.11406863408630047,0.13997839245543034,0.13023416143695454,0.11005031956385496,0.019234952655874285,0.06715411581732113,0.10656195084536513
0.027771115041145506,0.1687257501735954,0.0960710279290889,0.0933498809725022,0.04200568479377864,0.11903168314878845,0.14408318298235778,0.13614303502527686,0.11678572909223811,0.021757532965824028,0.0723400125969082,0.11392227497836602
0.03258606031805941,0.17654625694804724,0.10117340530203192,0.10020749344742225,0.04581063008680779,0.12422518306974814,0.1483939639819461,0.14227574980653054,0.12373237253850602,0.02449953737260359,0.07778129413542133,0.12153320509738405
0.03761571566791635,0.18461855527619137,0.10651795127661057,0.10730395190222008,0.04982740459995989,0.12965141254038087,0.15291599653324595,0.14863139414631948,0.13088690380718673,0.02746696125285078,0.08348142661665792,0.1293898248643764
0.04286373601379609,0.19298723787557662,0.11210792112203177,0.11463733033429627,0.05406221243375687,0.1353119304710617,0.15765387538312742,0.15520808230661226,0.13824511718171012,0.03066511544459745,0.0894432626419321,0.13748623703681503
